1.0,0.890547275543213,0.7711442708969117,0.5257048010826111,0.2885572016239166,0.20563846826553345,0.18242122232913968,0.16086235642433167,0.1492537260055542,0.14096185564994812,0.12935324013233185,0.12603648006916046,0.12603648006916046,0.11774460971355438,0.1111111119389534,0.1094527393579483,0.10116086155176161,0.09286899119615555,0.08623548597097397,0.08291874080896378,0.07794361561536789,0.06633499264717102,0.05472636967897415,0.05140961706638336,0.04477611929178238,0.03316749632358551,0.016583748161792755,0.013266998343169687,0.011608623899519444,0.006633499171584845,0.0,0.014925372786819935,0.026533996686339375,0.046434495598077774,0.0713101178407669,0.1044776141643524,0.12935324013233185,0.13598673045635223,0.1509121060371399,0.16749584674835205,0.1840796023607254,0.18573798239231107,0.1840796023607254,0.19568823277950287,0.20066334307193756,0.19734659790992737,0.19568823277950287,0.20066334307193756,0.19734659790992737,0.1890547275543213,0.18573798239231107,0.1840796023607254,0.1890547275543213,0.1840796023607254,0.17910447716712952,0.18242122232913968,0.19402985274791715,0.19734659790992737,0.19900497794151303,0.20895522832870483,0.2155887186527252,0.21393035352230072,0.2155887186527252,0.22719734907150269,0.24046434462070465,0.24046434462070465,0.23880596458911896,0.24709784984588623,0.2587064802646637,0.27197346091270447,0.27529022097587585,0.27529022097587585,0.2703150808811188,0.257048100233078,0.24378108978271484,0.23548921942710876,0.2288557142019272,0.2155887186527252,0.21227197349071503,0.2189054787158966,0.2222222238779068,0.2222222238779068,0.22719734907150269,0.24212272465229032,0.27363184094429016,0.3333333432674408,0.4344941973686218,0.6218905448913574,0.8242122530937195,0.9336650371551511,0.872305154800415,0.5058043003082275,0.2155887186527252,0.1807628571987152,0.18573798239231107,0.19402985274791715,0.20066334307193756,0.19237147271633148,0.17744609713554382,0.17744609713554382,0.18573798239231107,0.17744609713554382,0.17081260681152344,0.17412935197353363,0.17578773200511932,0.16086235642433167,0.0,0.0,0.0,0.0,0.0,0.0,0.0,0.0,0.0,0.0,0.0,0.0,0.0,0.0,0.0,0.0,0.0,0.0,0.0,0.0,0.0,0.0,0.0,0.0,0.0,0.0,0.0,0.0,0.0,0.0,0.0,0.0,0.0,0.0,0.0,0.0,0.0,0.0,0.0,0.0,0.0,0.0,0.0,0.0,0.0,0.0,0.0,0.0,0.0,0.0,0.0,0.0,0.0,0.0,0.0,0.0,0.0,0.0,0.0,0.0,0.0,0.0,0.0,0.0,0.0,0.0,0.0,0.0,0.0,0.0,0.0,0.0,0.0,0.0,0.0,0.0,0.0,0.0,0.0,0.0,0.0,3.0
1.0,0.9292237162590027,0.6780821681022644,0.36301368474960327,0.24885845184326172,0.2100456655025482,0.15068493783473969,0.13013698160648343,0.1324200928211212,0.12100456655025482,0.1164383590221405,0.1164383590221405,0.11187214404344557,0.1004566177725792,0.1050228327512741,0.10730593651533125,0.09132420271635056,0.08447488397359848,0.08675798773765563,0.0890410989522934,0.07077625393867493,0.054794520139694214,0.04566210135817528,0.031963471323251724,0.004566209856420755,0.004566209856420755,0.0,0.0022831049282103777,0.015981735661625862,0.031963471323251724,0.06164383515715599,0.10273972898721694,0.12328767031431198,0.14611871540546417,0.1666666716337204,0.18721461296081543,0.19634702801704407,0.1894977241754532,0.18721461296081543,0.19406393170356753,0.19178082048892975,0.18721461296081543,0.19863013923168185,0.20547945797443387,0.1894977241754532,0.1826484054327011,0.19178082048892975,0.20547945797443387,0.20547945797443387,0.2214611917734146,0.2511415481567383,0.25342464447021484,0.28082191944122314,0.33561643958091736,0.34703195095062256,0.310502290725708,0.31963470578193665,0.2990867495536804,0.2511415481567383,0.23059360682964325,0.20547945797443387,0.1826484054327011,0.1826484054327011,0.18721461296081543,0.1780821979045868,0.18493150174617767,0.21917808055877683,0.39497718214988703,0.6689497828483582,0.9063926935195923,1.0,0.8356164097785951,0.456620991230011,0.23515981435775757,0.20547945797443387,0.15981735289096832,0.12100456655025482,0.12100456655025482,0.11872146278619766,0.11187214404344557,0.10273972898721694,0.10273972898721694,0.0890410989522934,0.1004566177725792,0.0,0.0,0.0,0.0,0.0,0.0,0.0,0.0,0.0,0.0,0.0,0.0,0.0,0.0,0.0,0.0,0.0,0.0,0.0,0.0,0.0,0.0,0.0,0.0,0.0,0.0,0.0,0.0,0.0,0.0,0.0,0.0,0.0,0.0,0.0,0.0,0.0,0.0,0.0,0.0,0.0,0.0,0.0,0.0,0.0,0.0,0.0,0.0,0.0,0.0,0.0,0.0,0.0,0.0,0.0,0.0,0.0,0.0,0.0,0.0,0.0,0.0,0.0,0.0,0.0,0.0,0.0,0.0,0.0,0.0,0.0,0.0,0.0,0.0,0.0,0.0,0.0,0.0,0.0,0.0,0.0,0.0,0.0,0.0,0.0,0.0,0.0,0.0,0.0,0.0,0.0,0.0,0.0,0.0,0.0,0.0,0.0,0.0,0.0,0.0,0.0,0.0,0.0,0.0
1.0,0.854202389717102,0.687821626663208,0.5420240163803101,0.3379073739051819,0.2058319002389908,0.17667238414287567,0.16466552019119263,0.1578044593334198,0.14408233761787415,0.13722126185894012,0.13722126185894012,0.1320754736661911,0.1320754736661911,0.12178387492895126,0.1097770184278488,0.1097770184278488,0.1046312153339386,0.09262435883283617,0.0806174948811531,0.0789022296667099,0.07204116880893707,0.05488850921392441,0.03773584961891174,0.030874785035848618,0.02401372231543064,0.01029159501194954,0.0,0.0,0.003430531825870275,0.01029159501194954,0.025728987529873848,0.056603774428367615,0.0806174948811531,0.09777015447616576,0.12006860971450804,0.15094339847564697,0.16809605062007904,0.16981132328510284,0.17667238414287567,0.18524871766567233,0.19210977852344513,0.18353344500064847,0.18353344500064847,0.1818181872367859,0.18353344500064847,0.17667238414287567,0.17324185371398923,0.17667238414287567,0.17667238414287567,0.16638079285621643,0.16981132328510284,0.17495711147785187,0.18524871766567233,0.1869639754295349,0.18524871766567233,0.19897083938121796,0.20754717290401456,0.20240136981010437,0.2058319002389908,0.21783876419067383,0.22641509771347043,0.22813035547733304,0.2332761585712433,0.24871355295181272,0.25042882561683655,0.25385934114456177,0.25042882561683655,0.24871355295181272,0.23670668900012967,0.2161235064268112,0.20068611204624176,0.19554030895233152,0.19554030895233152,0.18867924809455872,0.18353344500064847,0.19554030895233152,0.19897083938121796,0.20411664247512817,0.2144082337617874,0.2607204020023346,0.3653516173362732,0.5180103182792664,0.7066895365715027,0.8233276009559632,0.879931390285492,0.6792452931404114,0.2830188572406769,0.12349914014339448,0.14579759538173676,0.15094339847564697,0.1543739289045334,0.16466552019119263,0.16295026242733,0.1543739289045334,0.15094339847564697,0.14751286804676056,0.14579759538173676,0.14065180718898773,0.13550600409507751,0.13893653452396393,0.13722126185894012,0.0,0.0,0.0,0.0,0.0,0.0,0.0,0.0,0.0,0.0,0.0,0.0,0.0,0.0,0.0,0.0,0.0,0.0,0.0,0.0,0.0,0.0,0.0,0.0,0.0,0.0,0.0,0.0,0.0,0.0,0.0,0.0,0.0,0.0,0.0,0.0,0.0,0.0,0.0,0.0,0.0,0.0,0.0,0.0,0.0,0.0,0.0,0.0,0.0,0.0,0.0,0.0,0.0,0.0,0.0,0.0,0.0,0.0,0.0,0.0,0.0,0.0,0.0,0.0,0.0,0.0,0.0,0.0,0.0,0.0,0.0,0.0,0.0,0.0,0.0,0.0,0.0,0.0,0.0,0.0,0.0,0.0,0.0,0.0,0.0,3.0
1.0,0.8141263723373413,0.17472119629383087,0.0,0.11895910650491714,0.17472119629383087,0.14869888126850128,0.2118959128856659,0.24535316228866577,0.21933086216449735,0.21561338007450104,0.2639405131340027,0.3345724940299988,0.34200742840766907,0.3085501790046692,0.32342007756233215,0.34200742840766907,0.34200742840766907,0.3345724940299988,0.3345724940299988,0.3531598448753357,0.34944239258766174,0.34200742840766907,0.3605948090553283,0.37546467781066895,0.37546467781066895,0.3903345763683319,0.4089219272136688,0.4386617243289947,0.45724907517433167,0.4646840095520019,0.49070632457733154,0.5390334725379944,0.5464683771133423,0.553903341293335,0.565055787563324,0.565055787563324,0.5464683771133423,0.5130111575126648,0.48327139019966125,0.45724907517433167,0.4052044749259949,0.3605948090553283,0.34944239258766174,0.3457249104976654,0.33085501194000244,0.30483272671699524,0.3011152446269989,0.3197025954723358,0.30483272671699524,0.2936803102493286,0.2936803102493286,0.3122676610946655,0.3085501790046692,0.30483272671699524,0.2936803102493286,0.30483272671699524,0.2899628281593323,0.2639405131340027,0.27137547731399536,0.29739776253700256,0.3011152446269989,0.282527893781662,0.29739776253700256,0.33085501194000244,0.32342007756233215,0.29739776253700256,0.3085501790046692,0.31598514318466187,0.28624534606933594,0.2899628281593323,0.33085501194000244,0.33085501194000244,0.3122676610946655,0.30483272671699524,0.3085501790046692,0.3122676610946655,0.30483272671699524,0.3122676610946655,0.3197025954723358,0.33085501194000244,0.3197025954723358,0.3011152446269989,0.3085501790046692,0.3345724940299988,0.33085501194000244,0.3382899761199951,0.37546467781066895,0.48327139019966125,0.732342004776001,0.921933114528656,0.5390334725379944,0.05947955325245858,0.03717472031712532,0.1338289976119995,0.14869888126850128,0.1598512977361679,0.230483278632164,0.2118959128856659,0.18959107995033264,0.22304832935333252,0.24535316228866577,0.2899628281593323,0.31598514318466187,0.3197025954723358,0.31598514318466187,0.3122676610946655,0.30483272671699524,0.3271375596523285,0.0,0.0,0.0,0.0,0.0,0.0,0.0,0.0,0.0,0.0,0.0,0.0,0.0,0.0,0.0,0.0,0.0,0.0,0.0,0.0,0.0,0.0,0.0,0.0,0.0,0.0,0.0,0.0,0.0,0.0,0.0,0.0,0.0,0.0,0.0,0.0,0.0,0.0,0.0,0.0,0.0,0.0,0.0,0.0,0.0,0.0,0.0,0.0,0.0,0.0,0.0,0.0,0.0,0.0,0.0,0.0,0.0,0.0,0.0,0.0,0.0,0.0,0.0,0.0,0.0,0.0,0.0,0.0,0.0,0.0,0.0,0.0,0.0,0.0,0.0,0.0,0.0,0.0,1.0
1.0,0.8898678421974182,0.22026431560516355,0.035242289304733276,0.1189427301287651,0.15859030187129974,0.1409691572189331,0.17621144652366638,0.24669604003429413,0.2378854602575302,0.20704846084117887,0.2599118947982788,0.3171806037425995,0.3612334728240966,0.3568281829357147,0.3480176329612732,0.3612334728240966,0.35242289304733276,0.3392070531845093,0.3480176329612732,0.3612334728240966,0.3612334728240966,0.3612334728240966,0.38325992226600647,0.3964757621288299,0.37004405260086054,0.37885463237762446,0.4008810520172119,0.4229075014591217,0.4229075014591217,0.4405286312103271,0.47136563062667847,0.49339208006858826,0.5286343693733215,0.5198237895965576,0.5286343693733215,0.541850209236145,0.5550661087036133,0.5506607890129089,0.5594713687896729,0.5462555289268494,0.5198237895965576,0.46696034073829645,0.458149790763855,0.4405286312103271,0.4229075014591217,0.392070472240448,0.37004405260086054,0.36563876271247864,0.3568281829357147,0.3392070531845093,0.3612334728240966,0.37444934248924255,0.36563876271247864,0.3568281829357147,0.35242289304733276,0.35242289304733276,0.3127753436565399,0.29955947399139404,0.303964763879776,0.33039647340774536,0.33039647340774536,0.3259911835193634,0.3612334728240966,0.3612334728240966,0.35242289304733276,0.34361234307289124,0.37004405260086054,0.35242289304733276,0.3348017632961273,0.3480176329612732,0.37444934248924255,0.34361234307289124,0.3259911835193634,0.3348017632961273,0.3480176329612732,0.3480176329612732,0.3348017632961273,0.3259911835193634,0.3392070531845093,0.3392070531845093,0.33039647340774536,0.34361234307289124,0.35242289304733276,0.37004405260086054,0.40969163179397583,0.6431717872619629,0.982378840446472,0.7709251046180725,0.13215859234333038,0.0,0.11453744769096375,0.14977973699569702,0.1189427301287651,0.17621144652366638,0.22026431560516355,0.19823788106441495,0.19823788106441495,0.2290748953819275,0.303964763879776,0.3392070531845093,0.3392070531845093,0.3259911835193634,0.3392070531845093,0.35242289304733276,0.0,0.0,0.0,0.0,0.0,0.0,0.0,0.0,0.0,0.0,0.0,0.0,0.0,0.0,0.0,0.0,0.0,0.0,0.0,0.0,0.0,0.0,0.0,0.0,0.0,0.0,0.0,0.0,0.0,0.0,0.0,0.0,0.0,0.0,0.0,0.0,0.0,0.0,0.0,0.0,0.0,0.0,0.0,0.0,0.0,0.0,0.0,0.0,0.0,0.0,0.0,0.0,0.0,0.0,0.0,0.0,0.0,0.0,0.0,0.0,0.0,0.0,0.0,0.0,0.0,0.0,0.0,0.0,0.0,0.0,0.0,0.0,0.0,0.0,0.0,0.0,0.0,0.0,0.0,0.0,0.0,0.0,1.0
1.0,0.7413294911384583,0.44219651818275446,0.21820808947086337,0.1315028965473175,0.1517340987920761,0.13583815097808835,0.10693641752004623,0.10260115563869476,0.09393063932657242,0.08959537744522095,0.08670520037412643,0.07658959180116653,0.08959537744522095,0.09393063932657242,0.08815029263496399,0.09393063932657242,0.09971098601818085,0.11271676421165466,0.12716762721538544,0.12716762721538544,0.161849707365036,0.1921965330839157,0.22109825909137723,0.2543352544307709,0.2745664715766907,0.3034681975841522,0.33670520782470703,0.3511560559272766,0.3713872730731964,0.3887283205986023,0.38294798135757446,0.3757225573062897,0.3713872730731964,0.36271676421165466,0.3482658863067627,0.31936416029930115,0.30924856662750244,0.29913294315338135,0.2702312171459198,0.25144508481025696,0.24421964585781095,0.22687861323356628,0.22543352842330933,0.21531791985034943,0.21387283504009247,0.23843930661678311,0.2572254240512848,0.28468209505081177,0.30635836720466614,0.3208092451095581,0.3078034818172455,0.25144508481025696,0.2124277502298355,0.20520231127738953,0.19364161789417264,0.19364161789417264,0.19653178751468656,0.19797687232494351,0.19797687232494351,0.1893063634634018,0.18497109413146973,0.17485548555850983,0.22832369804382324,0.43208092451095587,0.7644508481025696,0.9306358098983765,0.660404622554779,0.27745664119720453,0.027456646785140038,0.0,0.10260115563869476,0.1112716794013977,0.08815029263496399,0.08526011556386948,0.080924853682518,0.06936416029930115,0.06791907548904419,0.0,0.0,0.0,0.0,0.0,0.0,0.0,0.0,0.0,0.0,0.0,0.0,0.0,0.0,0.0,0.0,0.0,0.0,0.0,0.0,0.0,0.0,0.0,0.0,0.0,0.0,0.0,0.0,0.0,0.0,0.0,0.0,0.0,0.0,0.0,0.0,0.0,0.0,0.0,0.0,0.0,0.0,0.0,0.0,0.0,0.0,0.0,0.0,0.0,0.0,0.0,0.0,0.0,0.0,0.0,0.0,0.0,0.0,0.0,0.0,0.0,0.0,0.0,0.0,0.0,0.0,0.0,0.0,0.0,0.0,0.0,0.0,0.0,0.0,0.0,0.0,0.0,0.0,0.0,0.0,0.0,0.0,0.0,0.0,0.0,0.0,0.0,0.0,0.0,0.0,0.0,0.0,0.0,0.0,0.0,0.0,0.0,0.0,0.0,0.0,0.0,0.0,0.0,0.0,0.0,0.0,0.0,0.0,0.0,3.0
1.0,0.9649805426597596,0.7782101035118102,0.5136186480522156,0.21400777995586395,0.09079118072986603,0.11284046620130538,0.09727626293897629,0.07522697746753693,0.07003890722990036,0.05447470769286156,0.045395590364933014,0.040207523852586746,0.024643320590257645,0.010376134887337685,0.007782101165503264,0.003891050582751632,0.0,0.0012970168609172104,0.0064850845374166965,0.02075226977467537,0.032425422221422195,0.05836575850844383,0.08560311049222946,0.1102464348077774,0.1426718533039093,0.1738002598285675,0.20233462750911713,0.2373540848493576,0.26329442858695984,0.2840466797351837,0.30869001150131226,0.31258106231689453,0.3164721131324768,0.3035019338130951,0.2853437066078186,0.29182878136634827,0.2827496826648712,0.25940337777137756,0.2529182732105255,0.24254214763641355,0.22697794437408447,0.21919584274291992,0.2166018187999725,0.21789883077144623,0.22178988158702848,0.2204928696155548,0.22957198321819303,0.23994812369346616,0.23476004600524905,0.24513618648052216,0.2723735272884369,0.2853437066078186,0.30998703837394714,0.31258106231689453,0.3009079098701477,0.26459142565727234,0.22438392043113708,0.2166018187999725,0.22178988158702848,0.21789883077144623,0.2204928696155548,0.21789883077144623,0.2204928696155548,0.22957198321819303,0.2166018187999725,0.1919585019350052,0.2373540848493576,0.40207523107528687,0.652399480342865,0.8651102185249328,0.722438395023346,0.3657587468624115,0.07392995804548264,0.009079118259251116,0.11802853643894196,0.14656290411949155,0.12062256783246994,0.12191958725452424,0.12062256783246994,0.11932554841041564,0.11673151701688766,0.10635538399219512,0.11802853643894196,0.0,0.0,0.0,0.0,0.0,0.0,0.0,0.0,0.0,0.0,0.0,0.0,0.0,0.0,0.0,0.0,0.0,0.0,0.0,0.0,0.0,0.0,0.0,0.0,0.0,0.0,0.0,0.0,0.0,0.0,0.0,0.0,0.0,0.0,0.0,0.0,0.0,0.0,0.0,0.0,0.0,0.0,0.0,0.0,0.0,0.0,0.0,0.0,0.0,0.0,0.0,0.0,0.0,0.0,0.0,0.0,0.0,0.0,0.0,0.0,0.0,0.0,0.0,0.0,0.0,0.0,0.0,0.0,0.0,0.0,0.0,0.0,0.0,0.0,0.0,0.0,0.0,0.0,0.0,0.0,0.0,0.0,0.0,0.0,0.0,0.0,0.0,0.0,0.0,0.0,0.0,0.0,0.0,0.0,0.0,0.0,0.0,0.0,0.0,0.0,0.0,0.0,0.0,3.0
0.8047618865966797,0.8142856955528259,0.32380953431129456,0.05714285746216773,0.07619047909975052,0.12380952388048172,0.17619048058986664,0.2809523940086365,0.21904762089252472,0.1666666716337204,0.22380952537059784,0.3380952477455139,0.25238096714019775,0.3095238208770752,0.3761904835700989,0.4095238149166107,0.34285715222358704,0.3571428656578064,0.3380952477455139,0.3095238208770752,0.3380952477455139,0.3571428656578064,0.32380953431129456,0.2904762029647827,0.3095238208770752,0.32380953431129456,0.3571428656578064,0.4000000059604645,0.41428571939468384,0.4333333373069763,0.41428571939468384,0.48571428656578064,0.5476190447807312,0.5333333611488342,0.5142857432365417,0.5476190447807312,0.5761904716491699,0.5285714268684387,0.46666666865348816,0.44285714626312256,0.4000000059604645,0.39047619700431824,0.3285714387893677,0.3142857253551483,0.380952388048172,0.2904762029647827,0.20000000298023224,0.2380952388048172,0.24761904776096344,0.2809523940086365,0.24761904776096344,0.261904776096344,0.3142857253551483,0.24285714328289032,0.16190476715564728,0.18571428954601288,0.25238096714019775,0.25238096714019775,0.22857142984867096,0.24285714328289032,0.2571428716182709,0.3285714387893677,0.3380952477455139,0.3333333432674408,0.3047619163990021,0.2857142984867096,0.2904762029647827,0.3380952477455139,0.37142857909202576,0.3571428656578064,0.3285714387893677,0.31904762983322144,0.3380952477455139,0.3333333432674408,0.3095238208770752,0.3333333432674408,0.37142857909202576,0.32380953431129456,0.3380952477455139,0.380952388048172,0.39047619700431824,0.3619047701358795,0.34761905670166016,0.3571428656578064,0.4476190507411957,0.561904788017273,0.7714285850524902,1.0,0.6047618985176086,0.004761904943734407,0.0,0.10000000149011612,0.1428571492433548,0.12380952388048172,0.20952381193637848,0.2380952388048172,0.22380952537059784,0.261904776096344,0.27142858505249023,0.3142857253551483,0.36666667461395264,0.3523809611797333,0.3095238208770752,0.3523809611797333,0.380952388048172,0.0,0.0,0.0,0.0,0.0,0.0,0.0,0.0,0.0,0.0,0.0,0.0,0.0,0.0,0.0,0.0,0.0,0.0,0.0,0.0,0.0,0.0,0.0,0.0,0.0,0.0,0.0,0.0,0.0,0.0,0.0,0.0,0.0,0.0,0.0,0.0,0.0,0.0,0.0,0.0,0.0,0.0,0.0,0.0,0.0,0.0,0.0,0.0,0.0,0.0,0.0,0.0,0.0,0.0,0.0,0.0,0.0,0.0,0.0,0.0,0.0,0.0,0.0,0.0,0.0,0.0,0.0,0.0,0.0,0.0,0.0,0.0,0.0,0.0,0.0,0.0,0.0,0.0,0.0,0.0,0.0,0.0,1.0
0.9936708807945253,0.9129746556282045,0.4810126721858978,0.0569620244204998,0.15031646192073822,0.38132911920547485,0.46202531456947327,0.4699366986751556,0.4667721390724182,0.4651898741722107,0.48417720198631287,0.4857594966888428,0.4810126721858978,0.4873417615890503,0.4920886158943176,0.49525317549705505,0.5047468543052673,0.5094936490058899,0.5126582384109497,0.5379746556282043,0.5458860993385315,0.5490506291389465,0.5617088675498962,0.5806962251663208,0.5886076092720032,0.5886076092720032,0.607594907283783,0.6155063509941101,0.6123417615890503,0.6028481125831604,0.607594907283783,0.6155063509941101,0.6123417615890503,0.5838607549667358,0.5648733973503113,0.5490506291389465,0.5158227682113647,0.5,0.49367088079452515,0.48892405629158014,0.48892405629158014,0.4857594966888428,0.48892405629158014,0.5,0.4984177350997925,0.4857594966888428,0.49050632119178766,0.4920886158943176,0.4873417615890503,0.474683552980423,0.47151899337768555,0.47310125827789307,0.45886075496673584,0.45886075496673584,0.4636076092720032,0.47310125827789307,0.46044304966926575,0.43987342715263367,0.4430379867553711,0.4541139304637909,0.46202531456947327,0.4556961953639984,0.4667721390724182,0.47151899337768555,0.48417720198631287,0.48259493708610535,0.47151899337768555,0.4778481125831604,0.47310125827789307,0.46202531456947327,0.4493670761585235,0.4446202516555786,0.43987342715263367,0.4335443079471588,0.4256329238414765,0.4177215099334717,0.4113923907279968,0.40348100662231445,0.41455695033073425,0.4303797483444214,0.43829113245010376,0.4636076092720032,0.5537974834442139,0.726265847682953,0.9414557218551637,1.0,0.7120253443717957,0.20094937086105344,0.0,0.24525316059589383,0.422468364238739,0.46044304966926575,0.4541139304637909,0.4446202516555786,0.46202531456947327,0.4699366986751556,0.4636076092720032,0.4651898741722107,0.4667721390724182,0.4810126721858978,0.48259493708610535,0.48892405629158014,0.0,0.0,0.0,0.0,0.0,0.0,0.0,0.0,0.0,0.0,0.0,0.0,0.0,0.0,0.0,0.0,0.0,0.0,0.0,0.0,0.0,0.0,0.0,0.0,0.0,0.0,0.0,0.0,0.0,0.0,0.0,0.0,0.0,0.0,0.0,0.0,0.0,0.0,0.0,0.0,0.0,0.0,0.0,0.0,0.0,0.0,0.0,0.0,0.0,0.0,0.0,0.0,0.0,0.0,0.0,0.0,0.0,0.0,0.0,0.0,0.0,0.0,0.0,0.0,0.0,0.0,0.0,0.0,0.0,0.0,0.0,0.0,0.0,0.0,0.0,0.0,0.0,0.0,0.0,0.0,0.0,0.0,0.0,0.0,0.0,0.0
0.8090614676475525,0.4789643883705139,0.5177993774414062,0.5113268494606018,0.5177993774414062,0.508090615272522,0.4757281541824341,0.35922330617904663,0.26213592290878296,0.0906148850917816,0.058252427726984024,0.11326860636472702,0.11650485545396803,0.1003236249089241,0.15857605636119843,0.1877022683620453,0.18122977018356323,0.16181229054927823,0.2006472498178482,0.19417475163936615,0.2006472498178482,0.1877022683620453,0.1779935210943222,0.15857605636119843,0.16181229054927823,0.1326860785484314,0.13592232763767242,0.11326860636472702,0.11003236472606658,0.1003236249089241,0.11326860636472702,0.11003236472606658,0.12944984436035156,0.13915857672691345,0.17475728690624237,0.2006472498178482,0.22653721272945404,0.242718443274498,0.28155338764190674,0.291262149810791,0.3106796145439148,0.2783171534538269,0.30744338035583496,0.30420711636543274,0.2977346181869507,0.28155338764190674,0.29449838399887085,0.26213592290878296,0.28155338764190674,0.2653721570968628,0.2588996887207031,0.24919094145298004,0.2653721570968628,0.2556634247303009,0.252427190542221,0.24919094145298004,0.26213592290878296,0.23624595999717712,0.245954692363739,0.23300971090793607,0.2556634247303009,0.23624595999717712,0.23300971090793607,0.23624595999717712,0.23300971090793607,0.21682848036289215,0.22006472945213315,0.22653721272945404,0.23300971090793607,0.21035598218441007,0.21682848036289215,0.20711974799633023,0.223300963640213,0.223300963640213,0.21682848036289215,0.21682848036289215,0.23300971090793607,0.21359223127365112,0.21359223127365112,0.21035598218441007,0.21359223127365112,0.20711974799633023,0.23300971090793607,0.22977346181869504,0.223300963640213,0.20711974799633023,0.23624595999717712,0.22653721272945404,0.21682848036289215,0.21359223127365112,0.23624595999717712,0.23300971090793607,0.252427190542221,0.27184465527534485,0.38187703490257263,1.0,0.6084142327308655,0.5210356116294861,0.5469255447387695,0.5404530763626099,0.5048543810844421,0.5210356116294861,0.44336569309234614,0.31391584873199463,0.20711974799633023,0.0,0.03883495181798935,0.06796116381883621,0.07443365454673767,0.12944984436035156,0.21682848036289215,0.1779935210943222,0.19741100072860715,0.21359223127365112,0.23624595999717712,0.0,0.0,0.0,0.0,0.0,0.0,0.0,0.0,0.0,0.0,0.0,0.0,0.0,0.0,0.0,0.0,0.0,0.0,0.0,0.0,0.0,0.0,0.0,0.0,0.0,0.0,0.0,0.0,0.0,0.0,0.0,0.0,0.0,0.0,0.0,0.0,0.0,0.0,0.0,0.0,0.0,0.0,0.0,0.0,0.0,0.0,0.0,0.0,0.0,0.0,0.0,0.0,0.0,0.0,0.0,0.0,0.0,0.0,0.0,0.0,0.0,0.0,0.0,0.0,0.0,0.0,0.0,0.0,0.0,0.0,0.0,0.0,4.0
0.9756944179534912,0.9322916865348818,0.6180555820465088,0.390625,0.359375,0.3090277910232544,0.2586805522441864,0.2326388955116272,0.1822916716337204,0.15625,0.1163194477558136,0.1145833358168602,0.09548611193895341,0.1076388880610466,0.0868055522441864,0.09722222387790681,0.0850694477558136,0.078125,0.0711805522441864,0.0746527761220932,0.0659722238779068,0.0590277761220932,0.0434027761220932,0.0486111119389534,0.0295138880610466,0.027777777984738346,0.013888888992369173,0.013888888992369173,0.0,0.0,0.0,0.020833333954215046,0.026041666045784954,0.05729166790843009,0.0625,0.1059027761220932,0.125,0.140625,0.15625,0.171875,0.1770833283662796,0.1788194477558136,0.1753472238779068,0.1805555522441864,0.1701388955116272,0.1822916716337204,0.1701388955116272,0.1736111044883728,0.1770833283662796,0.1788194477558136,0.1684027761220932,0.1736111044883728,0.1614583283662796,0.1753472238779068,0.1666666716337204,0.1788194477558136,0.1684027761220932,0.1753472238779068,0.171875,0.1822916716337204,0.1788194477558136,0.1788194477558136,0.1701388955116272,0.1840277761220932,0.171875,0.1857638955116272,0.1684027761220932,0.1822916716337204,0.1770833283662796,0.1892361044883728,0.1805555522441864,0.1961805522441864,0.1979166716337204,0.1996527761220932,0.1996527761220932,0.2065972238779068,0.1961805522441864,0.2065972238779068,0.1944444477558136,0.1996527761220932,0.1805555522441864,0.1788194477558136,0.171875,0.1822916716337204,0.1736111044883728,0.1840277761220932,0.1770833283662796,0.1875,0.1788194477558136,0.2378472238779068,0.3663194477558136,0.4739583432674408,0.6649305820465088,0.9131944179534912,1.0,0.8350694179534912,0.4600694477558136,0.3784722089767456,0.3420138955116272,0.3003472089767456,0.2465277761220932,0.21875,0.1822916716337204,0.1545138955116272,0.1267361044883728,0.1215277761220932,0.1076388880610466,0.1180555522441864,0.1041666641831398,0.1076388880610466,0.09722222387790681,0.09548611193895341,0.09201388806104659,0.0,0.0,0.0,0.0,0.0,0.0,0.0,0.0,0.0,0.0,0.0,0.0,0.0,0.0,0.0,0.0,0.0,0.0,0.0,0.0,0.0,0.0,0.0,0.0,0.0,0.0,0.0,0.0,0.0,0.0,0.0,0.0,0.0,0.0,0.0,0.0,0.0,0.0,0.0,0.0,0.0,0.0,0.0,0.0,0.0,0.0,0.0,0.0,0.0,0.0,0.0,0.0,0.0,0.0,0.0,0.0,0.0,0.0,0.0,0.0,0.0,0.0,0.0,0.0,0.0,0.0,0.0,0.0,0.0,0.0,0.0,0.0,0.0,0.0,0.0
0.8073394298553467,0.4892966449260712,0.241590216755867,0.22324159741401672,0.20795106887817383,0.17125381529331207,0.1651376187801361,0.14678898453712463,0.17431192100048065,0.13149847090244293,0.15902140736579895,0.1345565766096115,0.1345565766096115,0.1345565766096115,0.14067278802394867,0.11314984411001204,0.11620794981718063,0.09785933047533037,0.10397553443908691,0.0917431190609932,0.09785933047533037,0.06727828830480576,0.0886850133538246,0.06727828830480576,0.0764525979757309,0.04281345382332802,0.03975535184144974,0.006116208154708147,0.012232416309416294,0.0030581040773540735,0.030581040307879448,0.0,0.01834862306714058,0.024464832618832588,0.05810397490859032,0.03669724613428116,0.05504587292671203,0.06727828830480576,0.08256880939006805,0.08256880939006805,0.09480122476816176,0.07339449226856232,0.09785933047533037,0.0886850133538246,0.10397553443908691,0.10397553443908691,0.11009174585342409,0.10091742873191832,0.11620794981718063,0.11314984411001204,0.12844036519527435,0.11620794981718063,0.12844036519527435,0.11314984411001204,0.14067278802394867,0.12844036519527435,0.14067278802394867,0.1192660555243492,0.14067278802394867,0.1376146823167801,0.15902140736579895,0.14373089373111725,0.16207951307296753,0.14678898453712463,0.15902140736579895,0.14373089373111725,0.17125381529331207,0.15596330165863037,0.17431192100048065,0.16207951307296753,0.1681957244873047,0.1681957244873047,0.17737002670764923,0.1681957244873047,0.1804281324148178,0.1681957244873047,0.19266055524349213,0.17125381529331207,0.19571866095066073,0.1834862381219864,0.19266055524349213,0.17737002670764923,0.1987767517566681,0.1834862381219864,0.20795106887817383,0.18654434382915497,0.21406728029251096,0.19571866095066073,0.19571866095066073,0.1987767517566681,0.21712538599967957,0.20183485746383664,0.21712538599967957,0.20489296317100525,0.22324159741401672,0.1987767517566681,0.21712538599967957,0.2110091745853424,0.2293577939271927,0.20183485746383664,0.22629968822002408,0.22018349170684817,0.22018349170684817,0.21406728029251096,0.23547400534152985,0.21712538599967957,0.23547400534152985,0.22018349170684817,0.2293577939271927,0.21712538599967957,0.2293577939271927,0.22629968822002408,0.2446483224630356,0.22324159741401672,0.23547400534152985,0.2293577939271927,0.2446483224630356,0.2293577939271927,0.241590216755867,0.22629968822002408,0.2507645189762115,0.2507645189762115,0.2874617874622345,0.2996941804885864,0.3975535035133362,0.6972476840019226,1.0,0.7217125296592712,0.41590213775634766,0.3333333432674408,0.2599388360977173,0.20795106887817383,0.21712538599967957,0.18654434382915497,0.20183485746383664,0.19571866095066073,0.20489296317100525,0.20183485746383664,0.21406728029251096,0.21406728029251096,0.21712538599967957,0.20795106887817383,0.23547400534152985,0.2110091745853424,0.23547400534152985,0.21712538599967957,0.22324159741401672,0.21406728029251096,0.23241589963436127,0.20489296317100525,0.2293577939271927,0.0,0.0,0.0,0.0,0.0,0.0,0.0,0.0,0.0,0.0,0.0,0.0,0.0,0.0,0.0,0.0,0.0,0.0,0.0,0.0,0.0,0.0,0.0,0.0,0.0,0.0,0.0,0.0,0.0,0.0,0.0,0.0,0.0,0.0,0.0,0.0,1.0
0.7555555701255798,0.4095238149166107,0.40317460894584656,0.38730159401893616,0.3682539761066437,0.3460317552089691,0.3142857253551483,0.26031747460365295,0.16190476715564728,0.0634920671582222,0.022222222760319706,0.009523809887468815,0.025396825745701786,0.028571428731083866,0.08253968507051467,0.16507937014102936,0.24761904776096344,0.29206350445747375,0.29206350445747375,0.29523810744285583,0.31111112236976624,0.2984127104282379,0.2984127104282379,0.29206350445747375,0.3333333432674408,0.3333333432674408,0.3460317552089691,0.35555556416511536,0.3650793731212616,0.3682539761066437,0.3777777850627899,0.380952388048172,0.39047619700431824,0.38730159401893616,0.3936507999897003,0.40317460894584656,0.42222222685813904,0.4095238149166107,0.43492063879966736,0.43492063879966736,0.4412698447704315,0.43809524178504944,0.4476190507411957,0.4571428596973419,0.460317462682724,0.4476190507411957,0.4444444477558136,0.4285714328289032,0.4285714328289032,0.40634921193122864,0.3968254029750824,0.3777777850627899,0.37142857909202576,0.35873016715049744,0.35555556416511536,0.3301587402820587,0.33968254923820496,0.32380953431129456,0.32380953431129456,0.3174603283405304,0.3142857253551483,0.2984127104282379,0.30793651938438416,0.3047619163990021,0.30158731341362,0.2984127104282379,0.2888889014720917,0.2825396955013275,0.2857142984867096,0.27619048953056335,0.27936509251594543,0.27936509251594543,0.2857142984867096,0.2730158865451813,0.27619048953056335,0.27619048953056335,0.2730158865451813,0.2730158865451813,0.2730158865451813,0.2730158865451813,0.2698412835597992,0.2698412835597992,0.2698412835597992,0.2730158865451813,0.2730158865451813,0.26031747460365295,0.27619048953056335,0.2730158865451813,0.27936509251594543,0.27936509251594543,0.2857142984867096,0.2984127104282379,0.380952388048172,1.0,0.4317460358142853,0.43492063879966736,0.4000000059604645,0.3841269910335541,0.35873016715049744,0.3365079462528229,0.3047619163990021,0.2571428716182709,0.13333334028720856,0.06031746044754981,0.01904761977493763,0.0,0.012698412872850893,0.0,0.07301587611436844,0.15555556118488312,0.22539682686328888,0.24126984179019928,0.27936509251594543,0.0,0.0,0.0,0.0,0.0,0.0,0.0,0.0,0.0,0.0,0.0,0.0,0.0,0.0,0.0,0.0,0.0,0.0,0.0,0.0,0.0,0.0,0.0,0.0,0.0,0.0,0.0,0.0,0.0,0.0,0.0,0.0,0.0,0.0,0.0,0.0,0.0,0.0,0.0,0.0,0.0,0.0,0.0,0.0,0.0,0.0,0.0,0.0,0.0,0.0,0.0,0.0,0.0,0.0,0.0,0.0,0.0,0.0,0.0,0.0,0.0,0.0,0.0,0.0,0.0,0.0,0.0,0.0,0.0,0.0,0.0,0.0,0.0,0.0,4.0
1.0,0.8037382960319518,0.39252337813377375,0.10280373692512512,0.10903427004814148,0.08722741156816483,0.06542056053876877,0.04361370578408241,0.04672897234559059,0.021806852892041206,0.040498442947864526,0.031152648851275444,0.040498442947864526,0.021806852892041206,0.040498442947864526,0.021806852892041206,0.040498442947864526,0.034267913550138474,0.05919003114104271,0.05607476457953453,0.07788161933422089,0.07165109366178513,0.1059190034866333,0.09968847036361694,0.12461059540510176,0.1214953288435936,0.15887850522994995,0.1682243049144745,0.19626168906688687,0.2087227404117584,0.25233644247055054,0.24610592424869537,0.28037384152412415,0.2554517090320587,0.27414330840110773,0.239875391125679,0.2024922072887421,0.15576323866844177,0.14018692076206207,0.08411215245723724,0.07165109366178513,0.040498442947864526,0.04672897234559059,0.018691588193178177,0.028037382289767265,0.012461058795452116,0.034267913550138474,0.021806852892041206,0.04672897234559059,0.031152648851275444,0.034267913550138474,0.028037382289767265,0.037383176386356354,0.037383176386356354,0.04361370578408241,0.028037382289767265,0.05295950174331665,0.037383176386356354,0.04672897234559059,0.040498442947864526,0.04361370578408241,0.024922117590904236,0.037383176386356354,0.015576324425637722,0.037383176386356354,0.021806852892041206,0.028037382289767265,0.015576324425637722,0.028037382289767265,0.009345794096589088,0.021806852892041206,0.0,0.018691588193178177,0.009345794096589088,0.021806852892041206,0.012461058795452116,0.018691588193178177,0.012461058795452116,0.021806852892041206,0.015576324425637722,0.034267913550138474,0.0031152646988630295,0.028037382289767265,0.009345794096589088,0.028037382289767265,0.015576324425637722,0.024922117590904236,0.009345794096589088,0.028037382289767265,0.015576324425637722,0.034267913550138474,0.021806852892041206,0.040498442947864526,0.021806852892041206,0.028037382289767265,0.015576324425637722,0.028037382289767265,0.018691588193178177,0.034267913550138474,0.009345794096589088,0.028037382289767265,0.015576324425637722,0.031152648851275444,0.015576324425637722,0.031152648851275444,0.021806852892041206,0.04361370578408241,0.028037382289767265,0.040498442947864526,0.024922117590904236,0.04361370578408241,0.04984423518180847,0.08411215245723724,0.06853582710027695,0.090342678129673,0.04984423518180847,0.05919003114104271,0.034267913550138474,0.04984423518180847,0.04361370578408241,0.05607476457953453,0.04984423518180847,0.07165109366178513,0.06542056053876877,0.09968847036361694,0.13707165420055387,0.24610592424869537,0.46728971600532526,0.7383177280426025,0.9470404982566832,0.8753893971443176,0.4984423816204071,0.22429905831813812,0.1214953288435936,0.14330218732357025,0.090342678129673,0.07165109366178513,0.04672897234559059,0.05607476457953453,0.040498442947864526,0.05607476457953453,0.04361370578408241,0.05919003114104271,0.04984423518180847,0.06230529770255089,0.05607476457953453,0.08099688589572905,0.07476635277271271,0.08411215245723724,0.090342678129673,0.1183800622820854,0.11526479572057724,0.14018692076206207,0.14018692076206207,0.17757008969783783,0.180685356259346,0.0,0.0,0.0,0.0,0.0,0.0,0.0,0.0,0.0,0.0,0.0,0.0,0.0,0.0,0.0,0.0,0.0,0.0,0.0,0.0,0.0,0.0,0.0,0.0,0.0,0.0,0.0,0.0,0.0,0.0,0.0,0.0
0.9295154213905334,0.9559471607208253,0.4515418410301208,0.24669604003429413,0.17841409146785736,0.16519823670387268,0.1409691572189331,0.13876652717590332,0.1079295128583908,0.10572687536478043,0.0969163030385971,0.11233480274677277,0.0969163030385971,0.1189427301287651,0.11233480274677277,0.12555065751075745,0.11453744769096375,0.12555065751075745,0.11233480274677277,0.09251101315021515,0.06167401000857354,0.055066078901290894,0.026431718841195103,0.07268722355365753,0.07268722355365753,0.07929515093564987,0.08810572326183319,0.1299559473991394,0.1299559473991394,0.16740088164806363,0.17621144652366638,0.19162996113300323,0.16960352659225464,0.16519823670387268,0.15859030187129974,0.16519823670387268,0.13436123728752136,0.13656388223171234,0.1299559473991394,0.14537444710731506,0.13876652717590332,0.15418502688407895,0.15418502688407895,0.18502202630043027,0.18722467124462128,0.2158590257167816,0.2158590257167816,0.25550660490989685,0.27753305435180664,0.27092510461807245,0.2488986849784851,0.2400881052017212,0.22246696054935455,0.2511013150215149,0.3171806037425995,0.40748897194862366,0.4911894202232361,0.5947136282920837,0.700440526008606,0.8193832635879517,0.9383260011672973,1.0,0.9735682606697084,0.5704845786094666,0.22026431560516355,0.10572687536478043,0.07268722355365753,0.06167401000857354,0.033039648085832596,0.035242289304733276,0.006607929710298777,0.008810572326183319,0.0,0.0,0.0,0.0,0.0,0.0,0.0,0.0,0.0,0.0,0.0,0.0,0.0,0.0,0.0,0.0,0.0,0.0,0.0,0.0,0.0,0.0,0.0,0.0,0.0,0.0,0.0,0.0,0.0,0.0,0.0,0.0,0.0,0.0,0.0,0.0,0.0,0.0,0.0,0.0,0.0,0.0,0.0,0.0,0.0,0.0,0.0,0.0,0.0,0.0,0.0,0.0,0.0,0.0,0.0,0.0,0.0,0.0,0.0,0.0,0.0,0.0,0.0,0.0,0.0,0.0,0.0,0.0,0.0,0.0,0.0,0.0,0.0,0.0,0.0,0.0,0.0,0.0,0.0,0.0,0.0,0.0,0.0,0.0,0.0,0.0,0.0,0.0,0.0,0.0,0.0,0.0,0.0,0.0,0.0,0.0,0.0,0.0,0.0,0.0,0.0,0.0,0.0,0.0,0.0,0.0,0.0,0.0,0.0,0.0,0.0,0.0,0.0,0.0,0.0,3.0
1.0,0.9657210111618042,0.7576832175254823,0.38652482628822327,0.1182033121585846,0.13356974720954895,0.1382978707551956,0.09929078072309494,0.08628841489553452,0.07919621467590333,0.06382978707551956,0.050827424973249435,0.03546099364757538,0.02600472792983055,0.013002363964915276,0.003546099178493023,0.002364066196605563,0.0,0.00591016560792923,0.014184396713972092,0.027186760678887367,0.0591016560792923,0.08983451873064041,0.11702127754688262,0.1560283750295639,0.18912529945373535,0.22813238203525543,0.27304965257644653,0.31560283899307245,0.3546099364757538,0.368794322013855,0.3782505989074707,0.3924349844455719,0.39125296473503113,0.3853427767753601,0.3723404109477997,0.35933807492256165,0.3546099364757538,0.34515365958213806,0.33215129375457764,0.3274231553077698,0.3226950466632843,0.3356974124908447,0.3380614519119262,0.33096927404403687,0.3510638177394867,0.3735224604606629,0.39125296473503113,0.4196217358112335,0.4290780127048493,0.42671394348144526,0.4018912613391876,0.3581560254096985,0.33215129375457764,0.33096927404403687,0.33215129375457764,0.33096927404403687,0.3226950466632843,0.33451536297798157,0.33096927404403687,0.32151299715042114,0.32033097743988037,0.3747044801712036,0.563829779624939,0.8061465620994568,0.8936170339584351,0.6773049831390381,0.36997637152671814,0.1631205677986145,0.15366430580615997,0.23758865892887115,0.2529550790786743,0.2399527132511139,0.23049645125865936,0.22576832771301267,0.2222222238779068,0.21631205081939697,0.0,0.0,0.0,0.0,0.0,0.0,0.0,0.0,0.0,0.0,0.0,0.0,0.0,0.0,0.0,0.0,0.0,0.0,0.0,0.0,0.0,0.0,0.0,0.0,0.0,0.0,0.0,0.0,0.0,0.0,0.0,0.0,0.0,0.0,0.0,0.0,0.0,0.0,0.0,0.0,0.0,0.0,0.0,0.0,0.0,0.0,0.0,0.0,0.0,0.0,0.0,0.0,0.0,0.0,0.0,0.0,0.0,0.0,0.0,0.0,0.0,0.0,0.0,0.0,0.0,0.0,0.0,0.0,0.0,0.0,0.0,0.0,0.0,0.0,0.0,0.0,0.0,0.0,0.0,0.0,0.0,0.0,0.0,0.0,0.0,0.0,0.0,0.0,0.0,0.0,0.0,0.0,0.0,0.0,0.0,0.0,0.0,0.0,0.0,0.0,0.0,0.0,0.0,0.0,0.0,0.0,0.0,0.0,0.0,0.0,3.0
1.0,0.7715877294540405,0.5097492933273315,0.2952646315097809,0.16713091731071472,0.12813369929790497,0.1309192180633545,0.12534819543361664,0.12256267666816711,0.1309192180633545,0.11699164658784866,0.11699164658784866,0.10863509774208067,0.10863509774208067,0.10863509774208067,0.10584957897663116,0.09470751881599426,0.08635097742080688,0.08635097742080688,0.08635097742080688,0.08356545865535736,0.07520891726016998,0.06406684964895248,0.06963787972927094,0.06406684964895248,0.055710308253765106,0.05292478948831558,0.058495823293924325,0.05013927444815635,0.058495823293924325,0.055710308253765106,0.06128133833408356,0.058495823293924325,0.06128133833408356,0.058495823293924325,0.06406684964895248,0.07520891726016998,0.08635097742080688,0.10306406766176224,0.10863509774208067,0.12813369929790497,0.13649025559425354,0.14484679698944092,0.1643453985452652,0.17548745870590207,0.17548745870590207,0.1866295337677002,0.17827297747135162,0.16991643607616425,0.18384401500225067,0.17548745870590207,0.17827297747135162,0.16991643607616425,0.16991643607616425,0.16713091731071472,0.16991643607616425,0.15877437591552734,0.15877437591552734,0.15877437591552734,0.1559888571500778,0.15877437591552734,0.14763231575489044,0.14484679698944092,0.15877437591552734,0.15320333838462827,0.1559888571500778,0.15877437591552734,0.15877437591552734,0.15320333838462827,0.17270195484161377,0.1643453985452652,0.17270195484161377,0.17827297747135162,0.16991643607616425,0.16991643607616425,0.17270195484161377,0.16155989468097687,0.1643453985452652,0.1559888571500778,0.1559888571500778,0.16155989468097687,0.16991643607616425,0.17270195484161377,0.17548745870590207,0.18384401500225067,0.20055709779262543,0.208913654088974,0.22005571424961087,0.21448467671871185,0.20055709779262543,0.20055709779262543,0.18941503763198853,0.18384401500225067,0.18941503763198853,0.21169915795326233,0.38161560893058777,0.8077994585037231,0.3064066767692566,0.32590529322624207,0.2869080901145935,0.25905293226242065,0.2534818947315216,0.2311977744102478,0.18105849623680112,0.13927575945854187,0.08913648873567581,0.0,0.005571030545979738,0.0,0.005571030545979738,0.09192200750112532,0.17270195484161377,0.20334261655807495,0.1643453985452652,0.1114206165075302,0.10306406766176224,0.0,0.0,0.0,0.0,0.0,0.0,0.0,0.0,0.0,0.0,0.0,0.0,0.0,0.0,0.0,0.0,0.0,0.0,0.0,0.0,0.0,0.0,0.0,0.0,0.0,0.0,0.0,0.0,0.0,0.0,0.0,0.0,0.0,0.0,0.0,0.0,0.0,0.0,0.0,0.0,0.0,0.0,0.0,0.0,0.0,0.0,0.0,0.0,0.0,0.0,0.0,0.0,0.0,0.0,0.0,0.0,0.0,0.0,0.0,0.0,0.0,0.0,0.0,0.0,0.0,0.0,0.0,0.0,0.0,0.0,0.0,4.0
0.9786780476570128,0.8805969953536987,0.5223880410194397,0.2409381717443466,0.19616204500198364,0.16417910158634183,0.11940298229455948,0.123667374253273,0.12579956650733948,0.11940298229455948,0.11300639808177948,0.117270790040493,0.11300639808177948,0.10874200612306593,0.1044776141643524,0.1108741983771324,0.09594883024692535,0.09381663054227829,0.08315564692020416,0.08742004632949829,0.07036247104406357,0.04477611929178238,0.031982943415641785,0.02985074557363987,0.014925372786819935,0.0,0.010660980828106403,0.025586353614926335,0.05330490320920944,0.0746268630027771,0.1044776141643524,0.1407249420881271,0.168443500995636,0.181236669421196,0.19402985274791715,0.20682302117347717,0.20895522832870483,0.20255863666534424,0.20042644441127777,0.20682302117347717,0.20682302117347717,0.20255863666534424,0.20682302117347717,0.21108742058277127,0.20895522832870483,0.19829423725605008,0.19616204500198364,0.20469082891941073,0.20895522832870483,0.21535180509090424,0.2238806039094925,0.2558635473251343,0.2686567306518554,0.279317706823349,0.3219616115093231,0.35181236267089844,0.32622602581977844,0.3219616115093231,0.3091684579849243,0.279317706823349,0.24307036399841309,0.21961620450019836,0.19829423725605008,0.20042644441127777,0.1918976604938507,0.19616204500198364,0.20469082891941073,0.20895522832870483,0.234541580080986,0.3837953209877014,0.641791045665741,0.8614072203636169,1.0,0.9381663203239442,0.6076759099960327,0.2963752746582031,0.21961620450019836,0.19829423725605008,0.14712153375148773,0.1407249420881271,0.14498934149742126,0.1279317736625671,0.12153518199920654,0.1279317736625671,0.0,0.0,0.0,0.0,0.0,0.0,0.0,0.0,0.0,0.0,0.0,0.0,0.0,0.0,0.0,0.0,0.0,0.0,0.0,0.0,0.0,0.0,0.0,0.0,0.0,0.0,0.0,0.0,0.0,0.0,0.0,0.0,0.0,0.0,0.0,0.0,0.0,0.0,0.0,0.0,0.0,0.0,0.0,0.0,0.0,0.0,0.0,0.0,0.0,0.0,0.0,0.0,0.0,0.0,0.0,0.0,0.0,0.0,0.0,0.0,0.0,0.0,0.0,0.0,0.0,0.0,0.0,0.0,0.0,0.0,0.0,0.0,0.0,0.0,0.0,0.0,0.0,0.0,0.0,0.0,0.0,0.0,0.0,0.0,0.0,0.0,0.0,0.0,0.0,0.0,0.0,0.0,0.0,0.0,0.0,0.0,0.0,0.0,0.0,0.0,0.0,0.0,0.0,0.0
1.0,0.741284430027008,0.2880733907222748,0.12660551071166992,0.12660551071166992,0.0587155967950821,0.03669724613428116,0.0660550445318222,0.0587155967950821,0.04036697372794151,0.078899085521698,0.02568807266652584,0.05321101099252701,0.06238532066345214,0.056880734860897064,0.05321101099252701,0.08440367132425308,0.08256880939006805,0.08073394745588303,0.08807339519262314,0.08990825712680817,0.09357798099517822,0.1119266077876091,0.1119266077876091,0.12110091745853424,0.12293577939271925,0.13027523458003995,0.1449541300535202,0.15229357779026031,0.14862385392189023,0.13577981293201447,0.12110091745853424,0.11009174585342409,0.08256880939006805,0.08807339519262314,0.07339449226856232,0.08073394745588303,0.0587155967950821,0.06055045872926712,0.020183486863970757,0.0458715595304966,0.0,0.03669724613428116,0.0,0.03669724613428116,0.0330275222659111,0.09724770486354829,0.0,0.09724770486354829,0.08623853325843811,0.0917431190609932,0.08623853325843811,0.09724770486354829,0.10275229066610336,0.09357798099517822,0.11009174585342409,0.11559633165597916,0.10825688391923904,0.13027523458003995,0.11559633165597916,0.11376146972179411,0.0990825667977333,0.11559633165597916,0.1192660555243492,0.12660551071166992,0.14311926066875455,0.11743119359016418,0.13027523458003995,0.13027523458003995,0.08990825712680817,0.06238532066345214,0.05321101099252701,0.0458715595304966,0.047706421464681625,0.047706421464681625,0.06422018259763718,0.05321101099252701,0.01284403633326292,0.04036697372794151,0.02935779839754105,0.157798171043396,0.3743119239807129,0.6366972327232361,0.45688074827194214,0.14128440618515015,0.06788990646600723,0.0458715595304966,0.06055045872926712,0.04036697372794151,0.03486238420009613,0.0330275222659111,0.04403669759631157,0.05137614533305168,0.05321101099252701,0.06055045872926712,0.05321101099252701,0.06422018259763718,0.06055045872926712,0.0990825667977333,0.078899085521698,0.10091742873191832,0.0,0.0,0.0,0.0,0.0,0.0,0.0,0.0,0.0,0.0,0.0,0.0,0.0,0.0,0.0,0.0,0.0,0.0,0.0,0.0,0.0,0.0,0.0,0.0,0.0,0.0,0.0,0.0,0.0,0.0,0.0,0.0,0.0,0.0,0.0,0.0,0.0,0.0,0.0,0.0,0.0,0.0,0.0,0.0,0.0,0.0,0.0,0.0,0.0,0.0,0.0,0.0,0.0,0.0,0.0,0.0,0.0,0.0,0.0,0.0,0.0,0.0,0.0,0.0,0.0,0.0,0.0,0.0,0.0,0.0,0.0,0.0,0.0,0.0,0.0,0.0,0.0,0.0,0.0,0.0,0.0,0.0,0.0,0.0,0.0,0.0,3.0
0.7040358781814575,0.5934230089187622,0.4917787611484527,0.3736920654773712,0.26158446073532104,0.1434977650642395,0.07922272384166716,0.016442451626062393,0.0,0.005979073233902454,0.05530642718076706,0.13452914357185364,0.2630792260169983,0.3288490176200866,0.3766816258430481,0.42152467370033264,0.481315404176712,0.5291479825973511,0.5754858255386353,0.5904334783554077,0.6128550171852112,0.6233183741569519,0.6427503824234009,0.6442451477050781,0.6547085046768188,0.6517189741134644,0.6636771559715271,0.6666666865348816,0.6920777559280396,0.701046347618103,0.7144992351531982,0.7219731211662292,0.7399103045463562,0.7548580169677734,0.7713004350662231,0.7847533822059632,0.8071748614311217,0.8176382780075073,0.841554582118988,0.8535127043724061,0.878923773765564,0.8878923654556276,0.9028400778770447,0.8983557820320129,0.911808669567108,0.8983557820320129,0.8953661918640136,0.865470826625824,0.8460388779640199,0.8071748614311217,0.7757847309112549,0.7339312434196472,0.7085201740264893,0.6666666865348816,0.6397608518600464,0.6083707213401794,0.5934230089187622,0.5769805908203125,0.5769805908203125,0.5635276436805725,0.560538113117218,0.5485799908638,0.5560538172721863,0.5500747561454773,0.554559051990509,0.5500747561454773,0.560538113117218,0.5500747561454773,0.560538113117218,0.5485799908638,0.5530642867088318,0.5381165742874146,0.5426008701324463,0.5336322784423828,0.5455904603004456,0.541106104850769,0.5440956354141235,0.5381165742874146,0.541106104850769,0.5366218090057373,0.5470852255821228,0.5381165742874146,0.541106104850769,0.5336322784423828,0.5426008701324463,0.5321375131607056,0.5366218090057373,0.5291479825973511,0.5321375131607056,0.5291479825973511,0.5396113395690918,0.5366218090057373,0.5440956354141235,0.541106104850769,0.5455904603004456,0.5396113395690918,0.5426008701324463,0.5366218090057373,0.541106104850769,0.5381165742874146,0.5440956354141235,0.5440956354141235,0.5455904603004456,0.541106104850769,0.5680119395256042,0.6517189741134644,1.0,0.9177877306938172,0.8355754613876343,0.7414050698280334,0.6502242088317871,0.5321375131607056,0.42002990841865534,0.2825112044811249,0.18834081292152405,0.11509715765714644,0.08071748912334442,0.07473841309547424,0.10911808907985689,0.1704035848379135,0.2974588871002197,0.3423019349575043,0.3632287085056305,0.40807175636291504,0.470852017402649,0.5231689214706421,0.5844544172286987,0.6098654866218567,0.6337817907333374,0.6397608518600464,0.0,0.0,0.0,0.0,0.0,0.0,0.0,0.0,0.0,0.0,0.0,0.0,0.0,0.0,0.0,0.0,0.0,0.0,0.0,0.0,0.0,0.0,0.0,0.0,0.0,0.0,0.0,0.0,0.0,0.0,0.0,0.0,0.0,0.0,0.0,0.0,0.0,0.0,0.0,0.0,0.0,0.0,0.0,0.0,0.0,0.0,0.0,0.0,0.0,0.0,0.0,0.0,0.0,0.0,0.0,0.0,0.0,4.0
1.0,0.49480968713760376,0.5155709385871887,0.5051903128623962,0.4982698857784271,0.4740484356880188,0.47058823704719543,0.3944636583328247,0.27681660652160645,0.14532871544361115,0.0,0.06228373572230339,0.11072664707899092,0.11764705926179884,0.15224912762641907,0.20415225625038144,0.1764705926179886,0.16262975335121155,0.16262975335121155,0.16955018043518066,0.1764705926179886,0.1764705926179886,0.17993079125881195,0.1660899668931961,0.16262975335121155,0.16262975335121155,0.15570934116840363,0.15916955471038818,0.18339100480079648,0.16955018043518066,0.18339100480079648,0.19031141698360443,0.19723182916641235,0.2006920427083969,0.2110726684331894,0.19723182916641235,0.2006920427083969,0.2110726684331894,0.23183390498161316,0.23875433206558228,0.2525951564311981,0.2629757821559906,0.2733564078807831,0.2733564078807831,0.2629757821559906,0.25951558351516724,0.2525951564311981,0.24221453070640564,0.23529411852359772,0.2283737063407898,0.21799308061599731,0.21799308061599731,0.22145329415798187,0.2110726684331894,0.2006920427083969,0.20415225625038144,0.20761245489120483,0.20415225625038144,0.19031141698360443,0.19723182916641235,0.2110726684331894,0.19031141698360443,0.19377163052558896,0.17993079125881195,0.19723182916641235,0.17993079125881195,0.18339100480079648,0.18339100480079648,0.17301037907600403,0.1660899668931961,0.18685121834278104,0.1764705926179886,0.1764705926179886,0.17301037907600403,0.1764705926179886,0.1764705926179886,0.16262975335121155,0.16955018043518066,0.16955018043518066,0.17301037907600403,0.17993079125881195,0.1764705926179886,0.16955018043518066,0.1764705926179886,0.16955018043518066,0.18685121834278104,0.18685121834278104,0.1660899668931961,0.18339100480079648,0.17301037907600403,0.19377163052558896,0.19723182916641235,0.20415225625038144,0.22145329415798187,0.30103805661201477,0.858131468296051,0.612456738948822,0.4740484356880188,0.4809688627719879,0.4982698857784271,0.47750866413116455,0.4463667869567871,0.41522490978240967,0.31833910942077637,0.18685121834278104,0.034602075815200806,0.0034602077212184668,0.06920415163040161,0.06228373572230339,0.06920415163040161,0.13840830326080322,0.15570934116840363,0.15224912762641907,0.14186851680278778,0.16955018043518066,0.19031141698360443,0.0,0.0,0.0,0.0,0.0,0.0,0.0,0.0,0.0,0.0,0.0,0.0,0.0,0.0,0.0,0.0,0.0,0.0,0.0,0.0,0.0,0.0,0.0,0.0,0.0,0.0,0.0,0.0,0.0,0.0,0.0,0.0,0.0,0.0,0.0,0.0,0.0,0.0,0.0,0.0,0.0,0.0,0.0,0.0,0.0,0.0,0.0,0.0,0.0,0.0,0.0,0.0,0.0,0.0,0.0,0.0,0.0,0.0,0.0,0.0,0.0,0.0,0.0,0.0,0.0,0.0,0.0,0.0,0.0,0.0,0.0,4.0
1.0,0.8209876418113708,0.4969135820865631,0.20370370149612424,0.07098765671253204,0.05555555596947669,0.07098765671253204,0.06172839552164078,0.06790123134851456,0.06172839552164078,0.05555555596947669,0.05864197388291359,0.05246913433074951,0.046296294778585434,0.046296294778585434,0.03086419776082039,0.027777777984738346,0.027777777984738346,0.027777777984738346,0.015432098880410194,0.02469135820865631,0.006172839552164078,0.009259259328246117,0.006172839552164078,0.009259259328246117,0.0,0.012345679104328156,0.0,0.012345679104328156,0.015432098880410194,0.02469135820865631,0.03703703731298447,0.05246913433074951,0.06790123134851456,0.08950617164373398,0.10185185074806212,0.12037037312984467,0.12345679104328156,0.1419753134250641,0.1358024626970291,0.1388888955116272,0.1388888955116272,0.1388888955116272,0.13271604478359222,0.1388888955116272,0.1296296268701553,0.1358024626970291,0.12037037312984467,0.12654320895671844,0.1296296268701553,0.12654320895671844,0.1111111119389534,0.12037037312984467,0.1111111119389534,0.1111111119389534,0.11728394776582717,0.12654320895671844,0.12654320895671844,0.1296296268701553,0.12654320895671844,0.13271604478359222,0.12654320895671844,0.1388888955116272,0.13271604478359222,0.1358024626970291,0.1358024626970291,0.13271604478359222,0.12345679104328156,0.1388888955116272,0.15123456716537476,0.1666666716337204,0.16049382090568542,0.17901234328746796,0.1944444477558136,0.20061728358268735,0.1944444477558136,0.18209876120090485,0.1697530895471573,0.1697530895471573,0.1574074029922485,0.1574074029922485,0.1574074029922485,0.1697530895471573,0.1666666716337204,0.17901234328746796,0.17592592537403107,0.2222222238779068,0.5771604776382446,0.6419752836227417,0.34876543283462524,0.3395061790943146,0.31790122389793396,0.31481480598449707,0.3395061790943146,0.4290123581886291,0.4783950746059418,0.5771604776382446,0.6296296119689941,0.5462962985038757,0.34567901492118835,0.1851851791143417,0.10185185074806212,0.1419753134250641,0.1388888955116272,0.15432098507881165,0.1574074029922485,0.1574074029922485,0.16049382090568542,0.1635802537202835,0.1574074029922485,0.1635802537202835,0.14814814925193787,0.15432098507881165,0.15123456716537476,0.0,0.0,0.0,0.0,0.0,0.0,0.0,0.0,0.0,0.0,0.0,0.0,0.0,0.0,0.0,0.0,0.0,0.0,0.0,0.0,0.0,0.0,0.0,0.0,0.0,0.0,0.0,0.0,0.0,0.0,0.0,0.0,0.0,0.0,0.0,0.0,0.0,0.0,0.0,0.0,0.0,0.0,0.0,0.0,0.0,0.0,0.0,0.0,0.0,0.0,0.0,0.0,0.0,0.0,0.0,0.0,0.0,0.0,0.0,0.0,0.0,0.0,0.0,0.0,0.0,0.0,0.0,0.0,0.0,0.0,0.0,0.0,0.0,4.0
0.6958831548690796,0.5803452730178833,0.33997344970703125,0.12749004364013672,0.0,0.09030544757843016,0.13811421394348145,0.14741036295890808,0.18061089515686035,0.233731746673584,0.28154051303863525,0.32802125811576843,0.35723772644996643,0.3745020031929016,0.3917662799358368,0.39575034379959106,0.42363879084587097,0.44355911016464233,0.44754317402839666,0.4634794294834137,0.4741035997867584,0.4847277700901031,0.4913678765296936,0.5152722597122192,0.5298804640769958,0.5537848472595215,0.5830013155937195,0.6162018775939941,0.6507304310798645,0.6865869760513306,0.717131495475769,0.7383798360824586,0.7490040063858032,0.752988040447235,0.746347963809967,0.7317396998405457,0.7065073251724243,0.6812748908996582,0.6520584225654602,0.6228419542312622,0.5883134007453918,0.5577689409255981,0.5312085151672363,0.5139442086219788,0.4926958978176117,0.47543162107467646,0.4634794294834137,0.4568393230438232,0.4515272378921509,0.44621515274047846,0.44355911016464233,0.44355911016464233,0.43957504630088806,0.4369190037250518,0.4369190037250518,0.43559098243713373,0.42895087599754333,0.4302788972854614,0.4262948334217071,0.4223107695579529,0.4156706631183624,0.4156706631183624,0.41035857796669006,0.39973440766334534,0.3970783650875091,0.394422322511673,0.3917662799358368,0.38911023736000067,0.38114210963249207,0.3864541947841644,0.3758300244808197,0.37715804576873774,0.3731739819049835,0.3758300244808197,0.37184596061706543,0.37051793932914734,0.3691899180412293,0.36653387546539307,0.3678618967533111,0.36653387546539307,0.3638778328895569,0.3691899180412293,0.3612217903137207,0.3598937690258026,0.3625498116016388,0.365205854177475,0.3612217903137207,0.36653387546539307,0.3585657477378845,0.3585657477378845,0.3625498116016388,0.365205854177475,0.3625498116016388,0.3625498116016388,0.35723772644996643,0.3638778328895569,0.3625498116016388,0.3625498116016388,0.3638778328895569,0.36653387546539307,0.3625498116016388,0.3638778328895569,0.3638778328895569,0.365205854177475,0.3625498116016388,0.3678618967533111,0.365205854177475,0.36653387546539307,0.37051793932914734,0.3691899180412293,0.37184596061706543,0.37051793932914734,0.37051793932914734,0.3691899180412293,0.37051793932914734,0.3691899180412293,0.3731739819049835,0.36653387546539307,0.3691899180412293,0.3758300244808197,0.3758300244808197,0.37715804576873774,0.3745020031929016,0.38379815220832825,0.38114210963249207,0.37848606705665583,0.3758300244808197,0.38114210963249207,0.379814088344574,0.38114210963249207,0.379814088344574,0.3864541947841644,0.3864541947841644,0.394422322511673,0.3984063863754272,0.41301462054252625,0.42496681213378906,0.47011953592300415,0.4741035997867584,0.47675964236259455,0.47011953592300415,0.44355911016464233,0.42363879084587097,0.4050464928150177,0.3917662799358368,0.3917662799358368,0.3904382586479187,0.3930943012237549,0.36653387546539307,0.32802125811576843,0.4515272378921509,0.804780900478363,1.0,0.993359923362732,0.6972111463546753,0.32536521553993225,0.3745020031929016,0.3758300244808197,0.37848606705665583,0.3731739819049835,0.3691899180412293,0.3745020031929016,0.37184596061706543,0.37184596061706543,0.3678618967533111,0.3691899180412293,0.0,0.0,0.0,0.0,0.0,0.0,0.0,0.0,0.0,0.0,0.0,0.0,0.0,0.0,0.0,0.0,0.0,0.0,0.0,0.0,0.0,2.0
1.0,0.8726027607917786,0.6041095852851868,0.27260273694992065,0.1260273903608322,0.15342465043067932,0.13150684535503387,0.10958904027938841,0.09863013774156569,0.07671232521533966,0.0821917802095413,0.07397260516881943,0.06164383515715599,0.054794520139694214,0.04794520512223244,0.05890411138534546,0.060273971408605576,0.05890411138534546,0.07945205271244049,0.09726027399301529,0.11917807906866072,0.13835616409778595,0.16438356041908264,0.21095889806747437,0.2575342357158661,0.2863013744354248,0.3369863033294678,0.3767123222351074,0.39863014221191406,0.41780820488929743,0.4301369786262512,0.44657534360885615,0.44246575236320496,0.4246575236320496,0.41643837094306946,0.3972602784633637,0.37945204973220825,0.3493150770664215,0.3287671208381653,0.31506848335266113,0.2876712381839752,0.25479450821876526,0.24794520437717435,0.2493150681257248,0.24794520437717435,0.24246574938297272,0.2575342357158661,0.2931506931781769,0.3219178020954132,0.32739725708961487,0.33561643958091736,0.3205479383468628,0.2780821919441223,0.23698629438877103,0.22191780805587769,0.2315068542957306,0.22739726305007937,0.22191780805587769,0.22602739930152893,0.22876712679862976,0.23013699054718015,0.22328767180442807,0.20958903431892395,0.2945205569267273,0.5356164574623108,0.8315068483352661,0.8205479383468627,0.4671232998371124,0.1520548015832901,0.0,0.0356164388358593,0.1342465728521347,0.14794521033763883,0.1260273903608322,0.1246575340628624,0.12191780656576157,0.11506849527359007,0.11780822277069092,0.12328767031431198,0.0,0.0,0.0,0.0,0.0,0.0,0.0,0.0,0.0,0.0,0.0,0.0,0.0,0.0,0.0,0.0,0.0,0.0,0.0,0.0,0.0,0.0,0.0,0.0,0.0,0.0,0.0,0.0,0.0,0.0,0.0,0.0,0.0,0.0,0.0,0.0,0.0,0.0,0.0,0.0,0.0,0.0,0.0,0.0,0.0,0.0,0.0,0.0,0.0,0.0,0.0,0.0,0.0,0.0,0.0,0.0,0.0,0.0,0.0,0.0,0.0,0.0,0.0,0.0,0.0,0.0,0.0,0.0,0.0,0.0,0.0,0.0,0.0,0.0,0.0,0.0,0.0,0.0,0.0,0.0,0.0,0.0,0.0,0.0,0.0,0.0,0.0,0.0,0.0,0.0,0.0,0.0,0.0,0.0,0.0,0.0,0.0,0.0,0.0,0.0,0.0,0.0,0.0,0.0,0.0,0.0,0.0,0.0,3.0
0.820045530796051,0.7482915520668031,0.4407745003700256,0.2915717661380768,0.36560365557670593,0.35763096809387207,0.32687926292419434,0.32460135221481323,0.31890660524368286,0.3132118582725525,0.31662869453430176,0.31890660524368286,0.3132118582725525,0.3086560368537903,0.3132118582725525,0.3177676498889923,0.31435078382492065,0.31435078382492065,0.31890660524368286,0.32118451595306396,0.31890660524368286,0.32118451595306396,0.33143508434295654,0.33371299505233765,0.3348519504070282,0.3428246080875397,0.35763096809387207,0.3644647002220154,0.3747152686119079,0.38610479235649103,0.39977219700813293,0.4157175421714782,0.4225512444972992,0.43052393198013306,0.4441913366317749,0.453302949666977,0.44988611340522766,0.45444190502166754,0.44988611340522766,0.437357634305954,0.4157175421714782,0.39179953932762146,0.37699317932128906,0.3633257448673248,0.3519362211227417,0.33826878666877747,0.3371298313140869,0.3371298313140869,0.330296128988266,0.3280182182788849,0.33371299505233765,0.3348519504070282,0.3280182182788849,0.33371299505233765,0.3451025187969208,0.34851935505867004,0.34054669737815857,0.34054669737815857,0.39066058397293085,0.4897494316101074,0.6082004308700562,0.7494305372238158,0.9009111523628235,0.986332595348358,1.0,0.9692482948303223,0.9168564677238464,0.9179954528808592,0.873576283454895,0.76765376329422,0.5945330262184143,0.3519362211227417,0.2813211977481842,0.2835990786552429,0.26082003116607666,0.24031890928745267,0.23120729625225067,0.2198177725076675,0.21298405528068545,0.21070614457130432,0.19703872501850128,0.18564920127391815,0.17881548404693604,0.1810933947563171,0.17653758823871613,0.17653758823871613,0.17767654359340668,0.17425967752933502,0.16742597520351407,0.15831434726715088,0.14009112119674683,0.11731207370758057,0.07061503082513809,0.025056947022676468,0.0,0.0,0.0,0.0,0.0,0.0,0.0,0.0,0.0,0.0,0.0,0.0,0.0,0.0,0.0,0.0,0.0,0.0,0.0,0.0,0.0,0.0,0.0,0.0,0.0,0.0,0.0,0.0,0.0,0.0,0.0,0.0,0.0,0.0,0.0,0.0,0.0,0.0,0.0,0.0,0.0,0.0,0.0,0.0,0.0,0.0,0.0,0.0,0.0,0.0,0.0,0.0,0.0,0.0,0.0,0.0,0.0,0.0,0.0,0.0,0.0,0.0,0.0,0.0,0.0,0.0,0.0,0.0,0.0,0.0,0.0,0.0,0.0,0.0,0.0,0.0,0.0,0.0,0.0,0.0,0.0,0.0,0.0,0.0,0.0,0.0,0.0,0.0,0.0,0.0,0.0,0.0,0.0,0.0
0.7492063641548157,0.6571428775787354,0.5444444417953491,0.4412698447704315,0.31587302684783936,0.20158730447292328,0.10952381044626236,0.05396825447678565,0.01904761977493763,0.04603174701333045,0.08253968507051467,0.17301587760448456,0.2888889014720917,0.3523809611797333,0.3936507999897003,0.460317462682724,0.5174603462219238,0.5761904716491699,0.5952380895614624,0.6190476417541504,0.6317460536956787,0.6539682745933533,0.6603174805641174,0.6793650984764099,0.6746031641960144,0.6841269731521606,0.6904761791229248,0.7111111283302307,0.7095237970352173,0.7333333492279053,0.7412698268890381,0.7682539820671082,0.776190459728241,0.8047618865966797,0.8158730268478394,0.8365079164505005,0.858730137348175,0.882539689540863,0.8936507701873779,0.9111111164093016,0.9015873074531556,0.903174579143524,0.8777777552604675,0.8571428656578064,0.8206349015235901,0.7888888716697693,0.7444444298744202,0.7111111283302307,0.6619047522544861,0.6317460536956787,0.5920634865760803,0.5761904716491699,0.565079391002655,0.561904788017273,0.5507936477661133,0.5507936477661133,0.5365079641342163,0.5444444417953491,0.538095235824585,0.538095235824585,0.5349206328392029,0.538095235824585,0.5333333611488342,0.5396825671195984,0.5253968238830566,0.5253968238830566,0.5190476179122925,0.523809552192688,0.5142857432365417,0.5269841551780701,0.5206349492073059,0.5222222208976746,0.5174603462219238,0.5222222208976746,0.5158730149269104,0.5174603462219238,0.5063492059707642,0.5111111402511597,0.5047619342803955,0.5174603462219238,0.5111111402511597,0.5079365372657776,0.5047619342803955,0.5126984119415283,0.5031746029853821,0.5158730149269104,0.5158730149269104,0.523809552192688,0.5158730149269104,0.5269841551780701,0.5206349492073059,0.5158730149269104,0.5126984119415283,0.5174603462219238,0.5174603462219238,0.523809552192688,0.5174603462219238,0.5269841551780701,0.5507936477661133,0.7253968119621277,1.0,0.8460317254066467,0.7841269969940186,0.7222222089767456,0.6333333253860474,0.5349206328392029,0.4095238149166107,0.2777777910232544,0.14761905372142792,0.06666667014360428,0.0,0.0015873016091063619,0.020634921267628666,0.10476190596818924,0.22539682686328888,0.31904762983322144,0.35555556416511536,0.41904762387275696,0.46666666865348816,0.5333333611488342,0.5730158686637878,0.6079365015029907,0.0,0.0,0.0,0.0,0.0,0.0,0.0,0.0,0.0,0.0,0.0,0.0,0.0,0.0,0.0,0.0,0.0,0.0,0.0,0.0,0.0,0.0,0.0,0.0,0.0,0.0,0.0,0.0,0.0,0.0,0.0,0.0,0.0,0.0,0.0,0.0,0.0,0.0,0.0,0.0,0.0,0.0,0.0,0.0,0.0,0.0,0.0,0.0,0.0,0.0,0.0,0.0,0.0,0.0,0.0,0.0,0.0,0.0,0.0,0.0,0.0,0.0,0.0,0.0,0.0,4.0
0.9883040785789488,0.9298245906829834,0.8877192735671997,0.8280701637268068,0.7532163858413696,0.6514619588851929,0.5426900386810303,0.41754385828971863,0.3251461982727051,0.27719298005104065,0.2374269068241119,0.15789473056793213,0.10760233551263808,0.11929824203252792,0.23391813039779663,0.31461986899375916,0.34736841917037964,0.3660818636417389,0.3871344923973083,0.3976608216762542,0.4444444477558136,0.48654970526695246,0.5368421077728271,0.5801169872283936,0.6292397379875183,0.6432748436927795,0.6573099493980408,0.6666666865348816,0.6842105388641357,0.7017543911933899,0.734502911567688,0.7660818696022034,0.7976608276367188,0.815204679965973,0.847953200340271,0.8514620065689087,0.8643274903297424,0.8783625960350037,0.8935672640800477,0.8888888955116272,0.886549711227417,0.8690058588981628,0.8538011908531189,0.8385964632034303,0.8128654956817627,0.7777777910232544,0.7508772015571593,0.7134503126144409,0.686549723148346,0.6467836499214172,0.6187134385108948,0.5847952961921692,0.5649122595787048,0.5415204763412476,0.5345029234886169,0.5204678177833557,0.5122807025909424,0.5052631497383118,0.5052631497383118,0.4970760345458984,0.4970760345458984,0.491228073835373,0.492397665977478,0.4888888895511627,0.49824562668800354,0.491228073835373,0.5122807025909424,0.5029239654541016,0.5064327716827393,0.5122807025909424,0.5134502649307251,0.5052631497383118,0.5111111402511597,0.5122807025909424,0.5157894492149353,0.5111111402511597,0.5134502649307251,0.5122807025909424,0.5122807025909424,0.5111111402511597,0.5122807025909424,0.5122807025909424,0.5134502649307251,0.5111111402511597,0.5181286334991455,0.5157894492149353,0.5228070020675659,0.5181286334991455,0.5169590711593628,0.5181286334991455,0.5321637392044067,0.5251461863517761,0.5321637392044067,0.5298245549201965,0.5391812920570374,0.5450292229652405,0.6315789222717285,0.9836257100105285,1.0,0.934502899646759,0.883040964603424,0.826900601387024,0.7473683953285217,0.6421052813529968,0.5146198868751526,0.36491227149963373,0.2549707591533661,0.1859649121761322,0.1485380083322525,0.07719298452138901,0.029239766299724575,0.0,0.10643275082111359,0.2315789461135864,0.3076023459434509,0.35672515630722046,0.4140350818634034,0.4304093420505523,0.5052631497383118,0.0,0.0,0.0,0.0,0.0,0.0,0.0,0.0,0.0,0.0,0.0,0.0,0.0,0.0,0.0,0.0,0.0,0.0,0.0,0.0,0.0,0.0,0.0,0.0,0.0,0.0,0.0,0.0,0.0,0.0,0.0,0.0,0.0,0.0,0.0,0.0,0.0,0.0,0.0,0.0,0.0,0.0,0.0,0.0,0.0,0.0,0.0,0.0,0.0,0.0,0.0,0.0,0.0,0.0,0.0,0.0,0.0,0.0,0.0,0.0,0.0,0.0,0.0,0.0,0.0,0.0,0.0,0.0,4.0
0.9334975481033325,0.9088670015335085,0.7931034564971923,0.6428571343421936,0.4507389068603515,0.41133004426956177,0.3866994976997375,0.39901477098464966,0.5073891878128052,0.5073891878128052,0.18965516984462735,0.1403940916061401,0.10098522156476974,0.09359605610370637,0.05911330133676529,0.0714285746216774,0.041871920228004456,0.04926108196377754,0.03201970458030701,0.03448275849223137,0.012315270490944384,0.019704433158040047,0.009852216579020023,0.02709359675645828,0.007389162667095661,0.007389162667095661,0.0,0.019704433158040047,0.012315270490944384,0.04926108196377754,0.0517241396009922,0.09359605610370637,0.10837438702583312,0.15024630725383759,0.1551724076271057,0.18719211220741272,0.19704432785511017,0.21674877405166623,0.20935960114002228,0.23152709007263184,0.2118226587772369,0.23152709007263184,0.21921181678771973,0.22906403243541715,0.2118226587772369,0.23152709007263184,0.21674877405166623,0.23152709007263184,0.21921181678771973,0.22906403243541715,0.22660098969936368,0.2389162629842758,0.2216748744249344,0.23645320534706116,0.22660098969936368,0.23399014770984647,0.23645320534706116,0.2463054209947586,0.22413793206214905,0.2389162629842758,0.23152709007263184,0.24384236335754392,0.22906403243541715,0.24384236335754392,0.2389162629842758,0.24384236335754392,0.22906403243541715,0.23645320534706116,0.22413793206214905,0.2463054209947586,0.2216748744249344,0.22660098969936368,0.21674877405166623,0.23399014770984647,0.21674877405166623,0.23399014770984647,0.23152709007263184,0.23645320534706116,0.23399014770984647,0.25123152136802673,0.24384236335754392,0.26847290992736816,0.25615763664245605,0.2660098373889923,0.2660098373889923,0.35960590839385986,0.517241358757019,0.8226600885391235,1.0,0.6822659969329834,0.1995073854923248,0.20443350076675415,0.23645320534706116,0.24137930572032928,0.2019704431295395,0.2142857164144516,0.18965516984462735,0.21674877405166623,0.2118226587772369,0.22660098969936368,0.20443350076675415,0.2068965584039688,0.2068965584039688,0.0,0.0,0.0,0.0,0.0,0.0,0.0,0.0,0.0,0.0,0.0,0.0,0.0,0.0,0.0,0.0,0.0,0.0,0.0,0.0,0.0,0.0,0.0,0.0,0.0,0.0,0.0,0.0,0.0,0.0,0.0,0.0,0.0,0.0,0.0,0.0,0.0,0.0,0.0,0.0,0.0,0.0,0.0,0.0,0.0,0.0,0.0,0.0,0.0,0.0,0.0,0.0,0.0,0.0,0.0,0.0,0.0,0.0,0.0,0.0,0.0,0.0,0.0,0.0,0.0,0.0,0.0,0.0,0.0,0.0,0.0,0.0,0.0,0.0,0.0,0.0,0.0,0.0,0.0,0.0,0.0,0.0,0.0,0.0,2.0
0.9955947399139404,1.0,0.5638766288757324,0.12775330245494843,0.037444934248924255,0.06828194111585617,0.08149779587984085,0.07488986849784851,0.06387665122747421,0.06167401000857354,0.06828194111585617,0.05286343768239021,0.050660792738199234,0.050660792738199234,0.05286343768239021,0.046255506575107574,0.033039648085832596,0.039647575467824936,0.039647575467824936,0.03083700500428677,0.019823787733912468,0.019823787733912468,0.022026430815458298,0.011013215407729149,0.0,0.0022026430815458298,0.008810572326183319,0.0044052861630916595,0.0022026430815458298,0.011013215407729149,0.019823787733912468,0.03083700500428677,0.044052861630916595,0.07048457860946655,0.09471365809440613,0.10132158547639845,0.10572687536478043,0.12114537507295609,0.12555065751075745,0.11674008518457411,0.11013215780258177,0.11453744769096375,0.12334802001714706,0.12114537507295609,0.11453744769096375,0.11233480274677277,0.1189427301287651,0.11453744769096375,0.11013215780258177,0.11013215780258177,0.1189427301287651,0.11674008518457411,0.10352423042058943,0.11013215780258177,0.12555065751075745,0.1189427301287651,0.11233480274677277,0.11453744769096375,0.12555065751075745,0.1189427301287651,0.12114537507295609,0.12334802001714706,0.12775330245494843,0.11674008518457411,0.11674008518457411,0.1189427301287651,0.13215859234333038,0.12334802001714706,0.11453744769096375,0.12555065751075745,0.13876652717590332,0.13215859234333038,0.1299559473991394,0.13436123728752136,0.14977973699569702,0.14757709205150604,0.14977973699569702,0.16740088164806363,0.1740088164806366,0.17621144652366638,0.17621144652366638,0.16960352659225464,0.16079294681549072,0.1409691572189331,0.12114537507295609,0.1189427301287651,0.12555065751075745,0.12114537507295609,0.1189427301287651,0.12775330245494843,0.14537444710731506,0.14317180216312408,0.15638767182826996,0.2026431709527969,0.3149779736995697,0.48678413033485407,0.7070484757423401,0.8722466826438904,0.9779735803604125,0.8898678421974182,0.4757709205150604,0.1409691572189331,0.07929515093564987,0.07268722355365753,0.06607929617166519,0.08149779587984085,0.08370044082403183,0.07048457860946655,0.05947136506438255,0.05947136506438255,0.055066078901290894,0.05726872384548187,0.044052861630916595,0.050660792738199234,0.04845815151929855,0.037444934248924255,0.035242289304733276,0.0,0.0,0.0,0.0,0.0,0.0,0.0,0.0,0.0,0.0,0.0,0.0,0.0,0.0,0.0,0.0,0.0,0.0,0.0,0.0,0.0,0.0,0.0,0.0,0.0,0.0,0.0,0.0,0.0,0.0,0.0,0.0,0.0,0.0,0.0,0.0,0.0,0.0,0.0,0.0,0.0,0.0,0.0,0.0,0.0,0.0,0.0,0.0,0.0,0.0,0.0,0.0,0.0,0.0,0.0,0.0,0.0,0.0,0.0,0.0,0.0,0.0,0.0,0.0,0.0,0.0,0.0,0.0,0.0,0.0,1.0
0.7435455918312072,1.0,0.80378657579422,0.45783132314682007,0.2581755518913269,0.22547331452369687,0.19621342420578,0.1858863979578018,0.17211703956127167,0.17383821308612823,0.1652323603630066,0.1652323603630066,0.1600688397884369,0.16695353388786316,0.15834768116474152,0.16179001331329343,0.15662650763988495,0.16351118683815002,0.15834768116474152,0.1600688397884369,0.15662650763988495,0.1600688397884369,0.1652323603630066,0.16867469251155853,0.17383821308612823,0.19104991853237152,0.19104991853237152,0.21170395612716672,0.21858863532543185,0.23407916724681857,0.22547331452369687,0.22203098237514496,0.21858863532543185,0.21342512965202332,0.20309810340404513,0.2013769298791885,0.2013769298791885,0.2013769298791885,0.19965577125549316,0.2013769298791885,0.19277107715606687,0.2013769298791885,0.1979345977306366,0.2082616239786148,0.20309810340404513,0.22547331452369687,0.2530120611190796,0.2977624833583832,0.37349396944046015,0.46815833449363714,0.5748708844184875,0.6712564826011658,0.7469879388809205,0.7831325531005859,0.7211704254150391,0.6970739960670471,0.6574870944023132,0.6213425397872925,0.5972461104393005,0.46815833449363714,0.2702237665653229,0.13425129652023315,0.09810671210289,0.07228915393352509,0.0550774522125721,0.03958692029118538,0.02409638464450836,0.015490533784031868,0.010327022522687912,0.0,0.0,0.0,0.0,0.0,0.0,0.0,0.0,0.0,0.0,0.0,0.0,0.0,0.0,0.0,0.0,0.0,0.0,0.0,0.0,0.0,0.0,0.0,0.0,0.0,0.0,0.0,0.0,0.0,0.0,0.0,0.0,0.0,0.0,0.0,0.0,0.0,0.0,0.0,0.0,0.0,0.0,0.0,0.0,0.0,0.0,0.0,0.0,0.0,0.0,0.0,0.0,0.0,0.0,0.0,0.0,0.0,0.0,0.0,0.0,0.0,0.0,0.0,0.0,0.0,0.0,0.0,0.0,0.0,0.0,0.0,0.0,0.0,0.0,0.0,0.0,0.0,0.0,0.0,0.0,0.0,0.0,0.0,0.0,0.0,0.0,0.0,0.0,0.0,0.0,0.0,0.0,0.0,0.0,0.0,0.0,0.0,0.0,0.0,0.0,0.0,0.0,0.0,0.0,0.0,0.0,0.0,0.0,0.0,0.0,0.0,0.0,0.0,0.0,0.0,0.0,0.0,0.0,3.0
0.6868686676025391,0.5959596037864685,0.5064935088157654,0.3708513677120209,0.24098123610019684,0.14141413569450378,0.07359307259321213,0.01587301678955555,0.007215007208287715,0.0,0.03896103799343109,0.14141413569450378,0.29148629307746887,0.39105337858200073,0.4473304450511932,0.5021644830703735,0.5555555820465088,0.5959596037864685,0.6147186160087585,0.6291486024856567,0.62193363904953,0.6277056336402893,0.630591630935669,0.6507936716079712,0.6608946323394775,0.663780689239502,0.6753246784210205,0.682539701461792,0.6955267190933228,0.709956705570221,0.7200577259063721,0.7388167381286621,0.7561327815055846,0.7691197395324707,0.7950937747955321,0.808080792427063,0.8167388439178467,0.8398268222808838,0.8542568683624268,0.8484848737716675,0.8441558480262756,0.8383838534355164,0.8239538073539734,0.8008658289909363,0.7777777910232544,0.7503607273101807,0.7142857313156128,0.6738816499710083,0.6536796689033508,0.6233766078948975,0.6017315983772278,0.5714285969734192,0.5685425400733948,0.569985568523407,0.5714285969734192,0.5613275766372681,0.5526695251464844,0.5483405590057373,0.5468975305557251,0.5396825671195984,0.5353535413742065,0.5281385183334351,0.5324675440788269,0.5295815467834473,0.5266955494880676,0.5180374979972839,0.5122655034065247,0.509379506111145,0.5079365372657776,0.49639248847961426,0.4920634925365448,0.490620493888855,0.5064935088157654,0.5050504803657532,0.5079365372657776,0.5064935088157654,0.5007215142250061,0.4978354871273041,0.49639248847961426,0.4935064911842346,0.4992784857749939,0.4920634925365448,0.48773449659347534,0.48051947355270386,0.48051947355270386,0.4776334762573242,0.479076474905014,0.48051947355270386,0.4848484992980957,0.4834054708480835,0.4819624722003937,0.47186148166656494,0.4848484992980957,0.4862914979457855,0.4834054708480835,0.4834054708480835,0.48773449659347534,0.48773449659347534,0.48773449659347534,0.490620493888855,0.48773449659347534,0.4848484992980957,0.4935064911842346,0.4992784857749939,0.523809552192688,0.6349206566810608,0.9191918969154357,0.9668109416961669,1.0,0.9437229633331299,0.8037518262863158,0.5743145942687988,0.5281385183334351,0.5670995712280273,0.5656565427780151,0.5569985508918762,0.542568564414978,0.5266955494880676,0.5108225345611572,0.4920634925365448,0.4819624722003937,0.0,0.0,0.0,0.0,0.0,0.0,0.0,0.0,0.0,0.0,0.0,0.0,0.0,0.0,0.0,0.0,0.0,0.0,0.0,0.0,0.0,0.0,0.0,0.0,0.0,0.0,0.0,0.0,0.0,0.0,0.0,0.0,0.0,0.0,0.0,0.0,0.0,0.0,0.0,0.0,0.0,0.0,0.0,0.0,0.0,0.0,0.0,0.0,0.0,0.0,0.0,0.0,0.0,0.0,0.0,0.0,0.0,0.0,0.0,0.0,0.0,0.0,0.0,0.0,0.0,0.0,4.0
1.0,0.9089820384979248,0.6467065811157227,0.2970059812068939,0.0910179615020752,0.10299400985240936,0.10658682882785796,0.0742514953017235,0.0586826354265213,0.0586826354265213,0.04431137815117836,0.03233532980084419,0.0227544903755188,0.01796407252550125,0.015568862669169903,0.005988024175167084,0.0,0.009580838494002819,0.013173652812838554,0.01796407252550125,0.031137725338339806,0.0455089807510376,0.0682634711265564,0.08742514997720718,0.11257485300302504,0.14970059692859647,0.1796407252550125,0.20598801970481873,0.2311377227306366,0.25269460678100586,0.27904191613197327,0.28502994775772095,0.27904191613197327,0.28143712878227234,0.26826345920562744,0.2598802447319031,0.24670659005641937,0.23952095210552216,0.23233532905578613,0.20598801970481873,0.20000000298023224,0.2023952156305313,0.20359280705451965,0.2119760513305664,0.21437126398086548,0.22155688703060153,0.24910180270671844,0.2610778510570526,0.27185627818107605,0.2958083748817444,0.2970059812068939,0.27544909715652466,0.2383233606815338,0.21676646173000336,0.22395209968090057,0.22035928070545197,0.2119760513305664,0.22275449335575104,0.22155688703060153,0.22035928070545197,0.22155688703060153,0.22035928070545197,0.2191616743803024,0.2766467034816742,0.48383232951164246,0.7916167378425598,0.8215568661689758,0.5029940009117126,0.2359281480312347,0.12574850022792816,0.10538922250270844,0.15808382630348203,0.16526946425437927,0.14850299060344696,0.15089820325374603,0.1401197612285614,0.14251497387886047,0.1413173675537109,0.13772454857826233,0.14371258020401,0.0,0.0,0.0,0.0,0.0,0.0,0.0,0.0,0.0,0.0,0.0,0.0,0.0,0.0,0.0,0.0,0.0,0.0,0.0,0.0,0.0,0.0,0.0,0.0,0.0,0.0,0.0,0.0,0.0,0.0,0.0,0.0,0.0,0.0,0.0,0.0,0.0,0.0,0.0,0.0,0.0,0.0,0.0,0.0,0.0,0.0,0.0,0.0,0.0,0.0,0.0,0.0,0.0,0.0,0.0,0.0,0.0,0.0,0.0,0.0,0.0,0.0,0.0,0.0,0.0,0.0,0.0,0.0,0.0,0.0,0.0,0.0,0.0,0.0,0.0,0.0,0.0,0.0,0.0,0.0,0.0,0.0,0.0,0.0,0.0,0.0,0.0,0.0,0.0,0.0,0.0,0.0,0.0,0.0,0.0,0.0,0.0,0.0,0.0,0.0,0.0,0.0,0.0,0.0,0.0,0.0,0.0,3.0
0.9767801761627197,0.8637771010398864,0.6547987461090088,0.45975232124328613,0.4659442603588104,0.48606809973716736,0.45975232124328613,0.43653249740600586,0.40866872668266296,0.39783281087875366,0.3699690401554107,0.36068111658096313,0.33746129274368286,0.3297213613986969,0.3034055829048157,0.30030959844589233,0.28328174352645874,0.2848297357559204,0.2739938199520111,0.2755417823791504,0.2585139274597168,0.2538699805736542,0.24303404986858368,0.23684211075305936,0.21671827137470245,0.21052631735801697,0.18421052396297455,0.1811145544052124,0.15789473056793213,0.14860680699348447,0.12229102104902267,0.10681114345788956,0.07430340349674223,0.05263157933950424,0.02941176481544971,0.021671826019883156,0.007739937864243984,0.009287925437092781,0.013931888155639172,0.03405572846531868,0.046439629048109055,0.07894736528396606,0.10216718167066574,0.1377708911895752,0.15634675323963165,0.19040247797966003,0.19349844753742215,0.22291021049022672,0.22910216450691223,0.25541794300079346,0.25541794300079346,0.27863776683807373,0.27863776683807373,0.2910216748714447,0.28792569041252136,0.297213613986969,0.3034055829048157,0.3188854455947876,0.3235294222831726,0.3575851321220398,0.4024767875671386,0.49380806088447565,0.5696594715118408,0.6331269145011902,0.698142409324646,0.7739937901496886,0.8622291088104248,0.9256966114044188,0.9628483057022095,1.0,0.8900928497314453,0.5634675025939941,0.34210526943206787,0.29876160621643066,0.23993808031082153,0.20588235557079315,0.18421052396297455,0.1764705926179886,0.15170279145240784,0.14860680699348447,0.13931888341903687,0.13931888341903687,0.1269349902868271,0.1207430362701416,0.09752321988344193,0.09442724287509918,0.06501547992229462,0.05108359083533287,0.023219814524054527,0.0,0.0,0.0,0.0,0.0,0.0,0.0,0.0,0.0,0.0,0.0,0.0,0.0,0.0,0.0,0.0,0.0,0.0,0.0,0.0,0.0,0.0,0.0,0.0,0.0,0.0,0.0,0.0,0.0,0.0,0.0,0.0,0.0,0.0,0.0,0.0,0.0,0.0,0.0,0.0,0.0,0.0,0.0,0.0,0.0,0.0,0.0,0.0,0.0,0.0,0.0,0.0,0.0,0.0,0.0,0.0,0.0,0.0,0.0,0.0,0.0,0.0,0.0,0.0,0.0,0.0,0.0,0.0,0.0,0.0,0.0,0.0,0.0,0.0,0.0,0.0,0.0,0.0,0.0,0.0,0.0,0.0,0.0,0.0,0.0,0.0,0.0,0.0,0.0,0.0,0.0,0.0,0.0,0.0,0.0,0.0,0.0,0.0,4.0
0.7772925496101379,0.72052401304245,0.12663754820823667,0.0,0.14847160875797272,0.0786026194691658,0.052401747554540634,0.12227074056863783,0.2052401751279831,0.13973799347877502,0.117903932929039,0.2052401751279831,0.2620087265968323,0.2489082962274551,0.29694321751594543,0.31877729296684265,0.25764191150665283,0.2663755416870117,0.32751092314720154,0.2925764322280884,0.27074235677719116,0.2925764322280884,0.35807859897613525,0.32751092314720154,0.27074235677719116,0.27074235677719116,0.3406113684177398,0.3842794895172119,0.3449781537055969,0.3449781537055969,0.4017467200756073,0.419213980436325,0.45414847135543823,0.4978165924549102,0.4978165924549102,0.47598254680633545,0.427947610616684,0.427947610616684,0.4585152864456177,0.46724891662597656,0.427947610616684,0.4017467200756073,0.42358079552650446,0.3449781537055969,0.28820961713790894,0.31004366278648376,0.3406113684177398,0.3362445533275604,0.2663755416870117,0.2751091718673706,0.3144104778766632,0.27947598695755005,0.27074235677719116,0.3144104778766632,0.29694321751594543,0.29694321751594543,0.3144104778766632,0.3362445533275604,0.31004366278648376,0.31004366278648376,0.331877738237381,0.3362445533275604,0.331877738237381,0.3406113684177398,0.3056768476963043,0.31004366278648376,0.31877729296684265,0.32751092314720154,0.29694321751594543,0.27074235677719116,0.3231441080570221,0.3144104778766632,0.2663755416870117,0.28820961713790894,0.31004366278648376,0.28820961713790894,0.2925764322280884,0.3056768476963043,0.31877729296684265,0.31004366278648376,0.3013100326061249,0.3013100326061249,0.2838428020477295,0.29694321751594543,0.31004366278648376,0.3056768476963043,0.331877738237381,0.31004366278648376,0.31004366278648376,0.3537117838859558,0.3056768476963043,0.24017466604709625,0.27947598695755005,0.32751092314720154,0.2663755416870117,0.27074235677719116,0.3056768476963043,0.3231441080570221,0.331877738237381,0.31877729296684265,0.3231441080570221,0.375545859336853,0.3144104778766632,0.213973805308342,0.2751091718673706,0.3231441080570221,0.3144104778766632,0.3056768476963043,0.32751092314720154,0.31877729296684265,0.29694321751594543,0.3144104778766632,0.3362445533275604,0.3362445533275604,0.2751091718673706,0.2925764322280884,0.3056768476963043,0.29694321751594543,0.31877729296684265,0.3449781537055969,0.31004366278648376,0.3144104778766632,0.3406113684177398,0.2663755416870117,0.27074235677719116,0.32751092314720154,0.3144104778766632,0.3144104778766632,0.3449781537055969,0.31877729296684265,0.2925764322280884,0.34934496879577637,0.3231441080570221,0.27947598695755005,0.3144104778766632,0.3362445533275604,0.32751092314720154,0.3144104778766632,0.331877738237381,0.3449781537055969,0.32751092314720154,0.3362445533275604,0.3406113684177398,0.331877738237381,0.32751092314720154,0.32751092314720154,0.3231441080570221,0.3056768476963043,0.3406113684177398,0.3537117838859558,0.3362445533275604,0.3144104778766632,0.3056768476963043,0.31877729296684265,0.3144104778766632,0.34934496879577637,0.34934496879577637,0.2925764322280884,0.32751092314720154,0.3624454140663147,0.3056768476963043,0.3013100326061249,0.3537117838859558,0.3537117838859558,0.3231441080570221,0.2925764322280884,0.3231441080570221,0.34934496879577637,0.3362445533275604,0.331877738237381,0.3406113684177398,0.3406113684177398,0.3013100326061249,0.2925764322280884,0.37991267442703247,0.34934496879577637,0.27074235677719116,0.31004366278648376,0.34934496879577637,0.35807859897613525,0.3362445533275604,0.28820961713790894,0.3231441080570221,0.34934496879577637,0.331877738237381,0.31004366278648376,0.3449781537055969,1.0
0.974238872528076,0.932084321975708,0.5901639461517334,0.13114753365516663,0.014051522128283976,0.16861826181411743,0.2388758808374405,0.2107728272676468,0.19672131538391113,0.2084309160709381,0.21311475336551663,0.20608898997306824,0.2084309160709381,0.2177985906600952,0.22248244285583496,0.2084309160709381,0.2084309160709381,0.2201405167579651,0.22482435405254364,0.2201405167579651,0.2177985906600952,0.2271662801504135,0.2295081913471222,0.2318501174449921,0.2388758808374405,0.2482435554265976,0.25995317101478577,0.25995317101478577,0.25995317101478577,0.26932084560394287,0.2833723723888397,0.2740046977996826,0.2763465940952301,0.2880561947822571,0.2927400469779968,0.2763465940952301,0.25995317101478577,0.2646369934082031,0.25995317101478577,0.2388758808374405,0.2388758808374405,0.24355971813201904,0.2388758808374405,0.2318501174449921,0.22482435405254364,0.2388758808374405,0.2388758808374405,0.2365339547395706,0.2365339547395706,0.24121779203414917,0.2388758808374405,0.24355971813201904,0.2388758808374405,0.2341920435428619,0.2482435554265976,0.24121779203414917,0.2318501174449921,0.2365339547395706,0.2365339547395706,0.2271662801504135,0.2318501174449921,0.2318501174449921,0.2365339547395706,0.2271662801504135,0.2201405167579651,0.2295081913471222,0.2295081913471222,0.22248244285583496,0.22482435405254364,0.2271662801504135,0.22482435405254364,0.22248244285583496,0.2177985906600952,0.2201405167579651,0.2201405167579651,0.2177985906600952,0.21311475336551663,0.2271662801504135,0.2318501174449921,0.2154566794633865,0.21311475336551663,0.22482435405254364,0.2365339547395706,0.2177985906600952,0.2201405167579651,0.2295081913471222,0.2318501174449921,0.22482435405254364,0.22482435405254364,0.2388758808374405,0.2482435554265976,0.25292739272117615,0.2646369934082031,0.2786885201931,0.28103044629096985,0.2786885201931,0.26932084560394287,0.26932084560394287,0.25292739272117615,0.24590164422988892,0.2318501174449921,0.22248244285583496,0.2271662801504135,0.2271662801504135,0.2388758808374405,0.2646369934082031,0.2880561947822571,0.3044496476650238,0.3255269229412079,0.3793911039829254,0.4379391074180603,0.4847775101661682,0.533957839012146,0.6370023488998413,0.8407494425773621,1.0,0.8852459192276002,0.48009368777275085,0.04215456545352936,0.0,0.17564402520656583,0.2388758808374405,0.2154566794633865,0.20374707877635956,0.2084309160709381,0.2177985906600952,0.2271662801504135,0.2154566794633865,0.2154566794633865,0.0,0.0,0.0,0.0,0.0,0.0,0.0,0.0,0.0,0.0,0.0,0.0,0.0,0.0,0.0,0.0,0.0,0.0,0.0,0.0,0.0,0.0,0.0,0.0,0.0,0.0,0.0,0.0,0.0,0.0,0.0,0.0,0.0,0.0,0.0,0.0,0.0,0.0,0.0,0.0,0.0,0.0,0.0,0.0,0.0,0.0,0.0,0.0,0.0,0.0,0.0,0.0,0.0,0.0,0.0,0.0,0.0,0.0,0.0
1.0,0.7496159672737122,0.4147465527057648,0.12442396581172945,0.058371737599372864,0.10138248652219772,0.07219661772251129,0.04608295112848282,0.04608295112848282,0.035330262035131454,0.029185868799686432,0.015360983088612556,0.019969278946518895,0.018433179706335068,0.015360983088612556,0.016897082328796387,0.024577572941780087,0.03993855789303779,0.058371737599372864,0.06451612710952759,0.09062980115413664,0.12442396581172945,0.1428571492433548,0.17204301059246063,0.20276497304439545,0.23195084929466248,0.26728111505508423,0.28878647089004517,0.31797236204147333,0.3425499200820923,0.33640551567077637,0.3410138189792633,0.3502304255962372,0.33640551567077637,0.3271889388561249,0.3102918565273285,0.2857142984867096,0.2780337929725647,0.25038403272628784,0.22887864708900452,0.21966205537319183,0.2043010741472244,0.19201229512691495,0.188940092921257,0.18279570341110227,0.2058371752500534,0.22580644488334656,0.2380952388048172,0.26728111505508423,0.28110599517822266,0.2718893885612488,0.2380952388048172,0.19815668463706967,0.16897080838680267,0.17050690948963165,0.1658986210823059,0.1674347221851349,0.17204301059246063,0.1582181304693222,0.1658986210823059,0.17050690948963165,0.15975423157215118,0.1751152127981186,0.33794161677360535,0.6881720423698425,0.9262672662734984,0.6789554357528687,0.2549923062324524,0.0,0.0015360983088612556,0.11367127299308775,0.10445468872785568,0.08909370005130768,0.09677419066429138,0.08909370005130768,0.09062980115413664,0.08448540419340135,0.08294931054115295,0.0,0.0,0.0,0.0,0.0,0.0,0.0,0.0,0.0,0.0,0.0,0.0,0.0,0.0,0.0,0.0,0.0,0.0,0.0,0.0,0.0,0.0,0.0,0.0,0.0,0.0,0.0,0.0,0.0,0.0,0.0,0.0,0.0,0.0,0.0,0.0,0.0,0.0,0.0,0.0,0.0,0.0,0.0,0.0,0.0,0.0,0.0,0.0,0.0,0.0,0.0,0.0,0.0,0.0,0.0,0.0,0.0,0.0,0.0,0.0,0.0,0.0,0.0,0.0,0.0,0.0,0.0,0.0,0.0,0.0,0.0,0.0,0.0,0.0,0.0,0.0,0.0,0.0,0.0,0.0,0.0,0.0,0.0,0.0,0.0,0.0,0.0,0.0,0.0,0.0,0.0,0.0,0.0,0.0,0.0,0.0,0.0,0.0,0.0,0.0,0.0,0.0,0.0,0.0,0.0,0.0,0.0,0.0,0.0,3.0
1.0,0.529629647731781,0.5259259343147278,0.5629629492759705,0.5481481552124023,0.5111111402511597,0.4888888895511627,0.4703703820705414,0.3296296298503876,0.20000000298023224,0.0,0.04814814776182175,0.022222222760319706,0.014814814552664757,0.03703703731298447,0.06296296417713165,0.06666667014360428,0.08518518507480621,0.05555555596947669,0.08888889104127883,0.08888889104127883,0.11481481790542603,0.10370370000600813,0.10370370000600813,0.0962962955236435,0.1111111119389534,0.08148147910833359,0.10370370000600813,0.10370370000600813,0.12222222238779068,0.1111111119389534,0.15185184776782987,0.15185184776782987,0.18888889253139496,0.20370370149612424,0.23703703284263608,0.24814814329147336,0.28518518805503845,0.2777777910232544,0.29259258508682245,0.27407407760620117,0.2777777910232544,0.2592592537403106,0.2666666805744171,0.24074074625968933,0.24074074625968933,0.2259259223937988,0.23333333432674408,0.2222222238779068,0.2259259223937988,0.21111111342906952,0.2222222238779068,0.21111111342906952,0.2222222238779068,0.21111111342906952,0.21481481194496152,0.20370370149612424,0.21111111342906952,0.19259259104728696,0.20370370149612424,0.1851851791143417,0.18888889253139496,0.1851851791143417,0.1851851791143417,0.17037037014961243,0.1851851791143417,0.1666666716337204,0.17777778208255768,0.1666666716337204,0.17777778208255768,0.1666666716337204,0.1666666716337204,0.15185184776782987,0.15555556118488312,0.1407407373189926,0.17037037014961243,0.15555556118488312,0.1851851791143417,0.1851851791143417,0.18888889253139496,0.18888889253139496,0.20000000298023224,0.17037037014961243,0.17407406866550443,0.1407407373189926,0.15185184776782987,0.14444445073604584,0.15925925970077515,0.1407407373189926,0.15925925970077515,0.14814814925193787,0.1666666716337204,0.16296295821666715,0.18148148059844968,0.2259259223937988,0.5185185074806213,0.8814814686775208,0.47777777910232544,0.5037037134170532,0.5703703761100769,0.5925925970077515,0.6074073910713196,0.6481481194496155,0.6592592597007751,0.5666666626930237,0.4481481611728668,0.23703703284263608,0.17037037014961243,0.16296295821666715,0.11851851642131804,0.04814814776182175,0.06296296417713165,0.040740739554166794,0.08148147910833359,0.03703703731298447,0.05925925821065903,0.0,0.0,0.0,0.0,0.0,0.0,0.0,0.0,0.0,0.0,0.0,0.0,0.0,0.0,0.0,0.0,0.0,0.0,0.0,0.0,0.0,0.0,0.0,0.0,0.0,0.0,0.0,0.0,0.0,0.0,0.0,0.0,0.0,0.0,0.0,0.0,0.0,0.0,0.0,0.0,0.0,0.0,0.0,0.0,0.0,0.0,0.0,0.0,0.0,0.0,0.0,0.0,0.0,0.0,0.0,0.0,0.0,0.0,0.0,0.0,0.0,0.0,0.0,0.0,0.0,0.0,0.0,0.0,0.0,0.0,0.0,4.0
1.0,0.6438356041908264,0.18356163799762723,0.14520548284053802,0.07397260516881943,0.027397260069847103,0.005479452200233936,0.030136985704302788,0.019178081303834915,0.024657534435391423,0.0,0.013698630034923552,0.024657534435391423,0.03287671133875847,0.027397260069847103,0.0356164388358593,0.021917808800935745,0.030136985704302788,0.03835616260766983,0.03287671133875847,0.04657534137368202,0.049315068870782845,0.05205479636788368,0.07945205271244049,0.07945205271244049,0.09589041024446487,0.09863013774156569,0.12054794281721117,0.12328767031431198,0.14794521033763883,0.16712328791618347,0.19178082048892975,0.21095889806747437,0.232876718044281,0.232876718044281,0.2575342357158661,0.2602739632129669,0.25479450821876526,0.232876718044281,0.22191780805587769,0.1972602754831314,0.19452054798603055,0.1808219105005264,0.1780821979045868,0.1780821979045868,0.16712328791618347,0.16712328791618347,0.1808219105005264,0.1780821979045868,0.18904109299182892,0.1780821979045868,0.18904109299182892,0.1780821979045868,0.19178082048892975,0.1780821979045868,0.1863013654947281,0.19178082048892975,0.1780821979045868,0.1808219105005264,0.19178082048892975,0.1808219105005264,0.19178082048892975,0.18356163799762723,0.19452054798603055,0.19452054798603055,0.1863013654947281,0.1863013654947281,0.19178082048892975,0.1780821979045868,0.18356163799762723,0.17534247040748596,0.1780821979045868,0.17534247040748596,0.18356163799762723,0.17260274291038513,0.1808219105005264,0.16712328791618347,0.17534247040748596,0.16712328791618347,0.1808219105005264,0.15890410542488098,0.16712328791618347,0.15616437792778015,0.1616438329219818,0.16438356041908264,0.216438353061676,0.232876718044281,0.2136986255645752,0.216438353061676,0.20821918547153473,0.19452054798603055,0.1780821979045868,0.1616438329219818,0.14794521033763883,0.13150684535503387,0.1424657553434372,0.12876711785793304,0.12876711785793304,0.12328767031431198,0.12328767031431198,0.08493150770664215,0.12054794281721117,0.4246575236320496,0.8958904147148132,0.619178056716919,0.29863014817237854,0.232876718044281,0.19178082048892975,0.10410959273576736,0.07671232521533966,0.06301369518041611,0.049315068870782845,0.04383561760187149,0.04383561760187149,0.05205479636788368,0.049315068870782845,0.04657534137368202,0.05205479636788368,0.049315068870782845,0.049315068870782845,0.04657534137368202,0.04657534137368202,0.04109589010477065,0.04657534137368202,0.0,0.0,0.0,0.0,0.0,0.0,0.0,0.0,0.0,0.0,0.0,0.0,0.0,0.0,0.0,0.0,0.0,0.0,0.0,0.0,0.0,0.0,0.0,0.0,0.0,0.0,0.0,0.0,0.0,0.0,0.0,0.0,0.0,0.0,0.0,0.0,0.0,0.0,0.0,0.0,0.0,0.0,0.0,0.0,0.0,0.0,0.0,0.0,0.0,0.0,0.0,0.0,0.0,0.0,0.0,0.0,0.0,0.0,0.0,0.0,0.0,0.0,0.0,0.0
1.0,0.9971264600753784,0.6867815852165222,0.2787356376647949,0.0,0.0517241396009922,0.020114943385124207,0.09482758492231368,0.07758620381355287,0.1551724076271057,0.16091954708099365,0.15804597735404968,0.1551724076271057,0.17528735101222992,0.14942528307437897,0.1551724076271057,0.13793103396892548,0.1522988528013229,0.13793103396892548,0.14367815852165222,0.13793103396892548,0.13793103396892548,0.123563215136528,0.1350574642419815,0.12068965286016464,0.14367815852165222,0.1465517282485962,0.16091954708099365,0.17241379618644714,0.20402298867702484,0.22126436233520508,0.24712643027305603,0.2586206793785095,0.2816092073917389,0.270114928483963,0.3017241358757019,0.2816092073917389,0.2844827473163605,0.2902298867702484,0.2931034564971924,0.28735631704330444,0.3017241358757019,0.272988498210907,0.2931034564971924,0.272988498210907,0.2902298867702484,0.270114928483963,0.2931034564971924,0.28735631704330444,0.29597702622413635,0.270114928483963,0.29597702622413635,0.2787356376647949,0.3045977056026459,0.28735631704330444,0.30747127532958984,0.29885056614875793,0.29885056614875793,0.2931034564971924,0.2931034564971924,0.2787356376647949,0.2844827473163605,0.26724138855934143,0.2902298867702484,0.2787356376647949,0.2902298867702484,0.272988498210907,0.2844827473163605,0.26436781883239746,0.27586206793785095,0.270114928483963,0.2844827473163605,0.2931034564971924,0.3045977056026459,0.29885056614875793,0.30747127532958984,0.29597702622413635,0.31609195470809937,0.2844827473163605,0.29597702622413635,0.27586206793785095,0.3247126340866089,0.4252873659133911,0.48563218116760254,0.5603448152542114,0.6149425506591797,0.5373563170433044,0.3735632300376892,0.25287356972694397,0.25,0.22413793206214905,0.2298850566148758,0.21264368295669556,0.22701148688793185,0.22126436233520508,0.21551723778247833,0.20114941895008087,0.2068965584039688,0.18103447556495664,0.20114941895008087,0.19827586412429807,0.2097701132297516,0.19827586412429807,0.22701148688793185,0.20402298867702484,0.0,0.0,0.0,0.0,0.0,0.0,0.0,0.0,0.0,0.0,0.0,0.0,0.0,0.0,0.0,0.0,0.0,0.0,0.0,0.0,0.0,0.0,0.0,0.0,0.0,0.0,0.0,0.0,0.0,0.0,0.0,0.0,0.0,0.0,0.0,0.0,0.0,0.0,0.0,0.0,0.0,0.0,0.0,0.0,0.0,0.0,0.0,0.0,0.0,0.0,0.0,0.0,0.0,0.0,0.0,0.0,0.0,0.0,0.0,0.0,0.0,0.0,0.0,0.0,0.0,0.0,0.0,0.0,0.0,0.0,0.0,0.0,0.0,0.0,0.0,0.0,0.0,0.0,0.0,0.0,0.0,0.0,2.0
0.4301075339317322,0.7473118305206299,0.6559139490127563,0.0,0.07526881992816925,0.2688172161579132,0.3279569745063782,0.301075279712677,0.33870968222618103,0.32258063554763794,0.35483869910240173,0.33870968222618103,0.3494623601436615,0.3333333432674408,0.35483869910240173,0.3494623601436615,0.3870967626571655,0.36021506786346436,0.3817204236984253,0.36021506786346436,0.4032258093357086,0.3870967626571655,0.3978494703769684,0.40860214829444885,0.4301075339317322,0.42473119497299194,0.4731182754039765,0.45698925852775574,0.5322580933570862,0.5430107712745667,0.5752688050270081,0.5537634491920471,0.5806451439857483,0.5161290168762207,0.48924732208251953,0.41935482621192927,0.42473119497299194,0.36021506786346436,0.3709677457809448,0.3279569745063782,0.3494623601436615,0.31182795763015747,0.30645161867141724,0.2956989109516144,0.3172042965888977,0.29032257199287415,0.30645161867141724,0.2849462330341339,0.32258063554763794,0.2956989109516144,0.32258063554763794,0.31182795763015747,0.3172042965888977,0.301075279712677,0.34408602118492126,0.31182795763015747,0.35483869910240173,0.3279569745063782,0.3494623601436615,0.3279569745063782,0.3333333432674408,0.3172042965888977,0.33870968222618103,0.2956989109516144,0.3279569745063782,0.2956989109516144,0.3172042965888977,0.27419355511665344,0.31182795763015747,0.2956989109516144,0.32258063554763794,0.2956989109516144,0.36021506786346436,0.32258063554763794,0.36559140682220453,0.33870968222618103,0.41397848725318914,0.37634408473968506,0.3709677457809448,0.3333333432674408,0.33870968222618103,0.33870968222618103,0.39247313141822815,0.34408602118492126,0.33870968222618103,0.3172042965888977,0.35483869910240173,0.3333333432674408,0.34408602118492126,0.3279569745063782,0.36559140682220453,0.3333333432674408,0.37634408473968506,0.35483869910240173,0.42473119497299194,0.49462366104125977,0.5806451439857483,0.5053763389587402,0.5268816947937012,0.44086021184921265,0.7688171863555909,1.0,0.2849462330341339,0.08602150529623032,0.35483869910240173,0.4032258093357086,0.4516128897666931,0.4462365508079529,0.48387095332145685,0.462365597486496,0.5161290168762207,0.45698925852775574,0.5107526779174805,0.5107526779174805,0.5483871102333069,0.5215053558349609,0.5537634491920471,0.5591397881507874,0.5483871102333069,0.0,0.0,0.0,0.0,0.0,0.0,0.0,0.0,0.0,0.0,0.0,0.0,0.0,0.0,0.0,0.0,0.0,0.0,0.0,0.0,0.0,0.0,0.0,0.0,0.0,0.0,0.0,0.0,0.0,0.0,0.0,0.0,0.0,0.0,0.0,0.0,0.0,0.0,0.0,0.0,0.0,0.0,0.0,0.0,0.0,0.0,0.0,0.0,0.0,0.0,0.0,0.0,0.0,0.0,0.0,0.0,0.0,0.0,0.0,0.0,0.0,0.0,0.0,0.0,0.0,0.0,0.0,0.0,0.0
0.9630996584892274,1.0,0.6125461459159851,0.3044280409812927,0.17896679043769836,0.14760147035121915,0.11992619931697844,0.1070110723376274,0.0904059037566185,0.09963099658489229,0.10332103073596954,0.11992619931697844,0.13468635082244873,0.15313653647899628,0.15313653647899628,0.14760147035121915,0.13468635082244873,0.13468635082244873,0.09409593790769576,0.07564575970172882,0.053505536168813705,0.053505536168813705,0.033210333436727524,0.018450183793902397,0.0,0.018450183793902397,0.04428044334053994,0.08118081092834473,0.1180811822414398,0.14760147035121915,0.13099631667137146,0.14206641912460327,0.1605166047811508,0.22878228127956393,0.21586716175079343,0.234317347407341,0.23247233033180237,0.2066420614719391,0.16789667308330536,0.17343173921108243,0.17158672213554382,0.17158672213554382,0.16236162185668945,0.1752767562866211,0.18265682458877563,0.180811807513237,0.17896679043769836,0.17896679043769836,0.17158672213554382,0.17712177336215973,0.18450184166431427,0.19557195901870728,0.1974169760942459,0.19926199316978457,0.19372694194316864,0.2140221446752548,0.21586716175079343,0.22878228127956393,0.23247233033180237,0.22878228127956393,0.2177121788263321,0.21955719590187073,0.19557195901870728,0.1881918758153915,0.1752767562866211,0.18450184166431427,0.19003690779209137,0.19372694194316864,0.19372694194316864,0.2011070102453232,0.21033211052417755,0.22509224712848663,0.3044280409812927,0.5424354076385498,0.800738036632538,0.6881918907165527,0.27859777212142944,0.20479704439640045,0.20479704439640045,0.22140221297740936,0.20848707854747772,0.2066420614719391,0.20479704439640045,0.19372694194316864,0.17343173921108243,0.17896679043769836,0.169741690158844,0.0,0.0,0.0,0.0,0.0,0.0,0.0,0.0,0.0,0.0,0.0,0.0,0.0,0.0,0.0,0.0,0.0,0.0,0.0,0.0,0.0,0.0,0.0,0.0,0.0,0.0,0.0,0.0,0.0,0.0,0.0,0.0,0.0,0.0,0.0,0.0,0.0,0.0,0.0,0.0,0.0,0.0,0.0,0.0,0.0,0.0,0.0,0.0,0.0,0.0,0.0,0.0,0.0,0.0,0.0,0.0,0.0,0.0,0.0,0.0,0.0,0.0,0.0,0.0,0.0,0.0,0.0,0.0,0.0,0.0,0.0,0.0,0.0,0.0,0.0,0.0,0.0,0.0,0.0,0.0,0.0,0.0,0.0,0.0,0.0,0.0,0.0,0.0,0.0,0.0,0.0,0.0,0.0,0.0,0.0,0.0,0.0,0.0,0.0,0.0,3.0
0.9480069279670716,0.9497400522232056,0.33448874950408936,0.07279029488563538,0.2790294587612152,0.2876949608325958,0.2824956774711609,0.2859618663787842,0.2738301455974579,0.2738301455974579,0.2790294587612152,0.2738301455974579,0.2738301455974579,0.2859618663787842,0.2980935871601105,0.2998266816139221,0.30155980587005615,0.3119584023952484,0.32235702872276306,0.32062390446662903,0.32235702872276306,0.33448874950408936,0.3396880328655243,0.3396880328655243,0.3448873460292816,0.35355284810066223,0.3604852557182312,0.35355284810066223,0.35528597235679626,0.37088388204574585,0.37088388204574585,0.36568456888198847,0.36915078759193426,0.38301560282707214,0.3986135125160218,0.40727901458740234,0.40381282567977905,0.41247832775115967,0.40727901458740234,0.3882149159908294,0.3726169764995575,0.3622183799743652,0.3518197536468506,0.3448873460292816,0.336221843957901,0.3310225307941437,0.33448874950408936,0.3327556252479553,0.327556312084198,0.3327556252479553,0.336221843957901,0.336221843957901,0.3396880328655243,0.35008665919303894,0.35355284810066223,0.3448873460292816,0.34662044048309326,0.3518197536468506,0.35528597235679626,0.35008665919303894,0.35008665919303894,0.3570190668106079,0.35008665919303894,0.3414211571216583,0.3396880328655243,0.3396880328655243,0.3414211571216583,0.3327556252479553,0.32062390446662903,0.327556312084198,0.3310225307941437,0.32235702872276306,0.3188908100128174,0.32062390446662903,0.32062390446662903,0.3240901231765747,0.3154246211051941,0.3154246211051941,0.31715771555900574,0.31715771555900574,0.3154246211051941,0.32062390446662903,0.3154246211051941,0.32062390446662903,0.32235702872276306,0.32928943634033203,0.3448873460292816,0.35528597235679626,0.36568456888198847,0.3639514744281769,0.35355284810066223,0.34315425157546997,0.33795493841171265,0.32928943634033203,0.32235702872276306,0.32062390446662903,0.32062390446662903,0.3448873460292816,0.3934141993522644,0.5649913549423218,0.9220104217529296,1.0,0.44887349009513855,0.0,0.2287694960832596,0.2859618663787842,0.28076255321502686,0.2824956774711609,0.27729636430740356,0.27729636430740356,0.2824956774711609,0.28422877192497253,0.28942808508872986,0.2946273684501648,0.30155980587005615,0.3032929003238678,0.30502599477767944,0.3154246211051941,0.32235702872276306,0.32062390446662903,0.0,0.0,0.0,0.0,0.0,0.0,0.0,0.0,0.0,0.0,0.0,0.0,0.0,0.0,0.0,0.0,0.0,0.0,0.0,0.0,0.0,0.0,0.0,0.0,0.0,0.0,0.0,0.0,0.0,0.0,0.0,0.0,0.0,0.0,0.0,0.0,0.0,0.0,0.0,0.0,0.0,0.0,0.0,0.0,0.0,0.0,0.0,0.0,0.0,0.0,0.0,0.0,0.0,0.0,0.0,0.0,0.0,0.0,0.0,0.0,0.0,0.0,0.0,0.0,0.0,0.0,0.0,0.0
0.6623586416244507,0.5702746510505676,0.45880451798439026,0.35056543350219727,0.22294022142887115,0.1534733474254608,0.11147011071443556,0.14054927229881287,0.17124393582344055,0.21809369325637817,0.24878837168216705,0.3150242269039154,0.40387722849845886,0.48465266823768616,0.5072697997093201,0.5282713770866394,0.5218093991279602,0.5315024256706238,0.5298869013786316,0.5363489389419556,0.533117949962616,0.5428109765052795,0.5395799875259399,0.5525040626525879,0.5525040626525879,0.5605815649032593,0.5621970891952515,0.578352153301239,0.5767366886138916,0.5945072770118713,0.5977382659912109,0.6138933897018433,0.6155089139938354,0.6348949670791626,0.6348949670791626,0.6558966040611267,0.6510500907897949,0.6639741659164429,0.6542810797691345,0.6575121283531189,0.6478190422058105,0.6397415399551392,0.6106623411178589,0.5880452394485474,0.5638126134872437,0.5525040626525879,0.5363489389419556,0.533117949962616,0.5169628262519836,0.5153473615646362,0.5056542754173279,0.5121163129806519,0.5024232864379883,0.5088853240013123,0.4975767433643341,0.5072697997093201,0.4975767433643341,0.5056542754173279,0.5008077621459961,0.5088853240013123,0.4991922378540039,0.5072697997093201,0.5040387511253357,0.513731837272644,0.5088853240013123,0.5185783505439758,0.5040387511253357,0.5056542754173279,0.4975767433643341,0.4991922378540039,0.49273020029067993,0.48788368701934814,0.48142164945602417,0.4830371439456939,0.4668820798397064,0.47495961189270014,0.4701130986213684,0.4733441174030304,0.4733441174030304,0.4862681627273559,0.47657510638237,0.49434572458267206,0.48465266823768616,0.48949918150901794,0.479806125164032,0.48465266823768616,0.48788368701934814,0.4991922378540039,0.4830371439456939,0.48142164945602417,0.4781906306743622,0.48788368701934814,0.4668820798397064,0.479806125164032,0.4830371439456939,0.5056542754173279,0.5008077621459961,0.5153473615646362,0.5460420250892639,0.8174474835395813,1.0,0.8319870829582214,0.7334410548210144,0.6348949670791626,0.5169628262519836,0.3925686478614807,0.23747980594635007,0.11631663888692856,0.035541195422410965,0.008077544160187244,0.0,0.03877221420407295,0.10985460132360458,0.2277867496013641,0.29725363850593567,0.3634895086288452,0.41841679811477667,0.479806125164032,0.5315024256706238,0.5735056400299072,0.578352153301239,0.5928917527198792,0.0,0.0,0.0,0.0,0.0,0.0,0.0,0.0,0.0,0.0,0.0,0.0,0.0,0.0,0.0,0.0,0.0,0.0,0.0,0.0,0.0,0.0,0.0,0.0,0.0,0.0,0.0,0.0,0.0,0.0,0.0,0.0,0.0,0.0,0.0,0.0,0.0,0.0,0.0,0.0,0.0,0.0,0.0,0.0,0.0,0.0,0.0,0.0,0.0,0.0,0.0,0.0,0.0,0.0,0.0,0.0,0.0,0.0,0.0,0.0,0.0,0.0,0.0,0.0,0.0,4.0
0.9826086759567261,0.991304337978363,0.343478262424469,0.0,0.09565217047929765,0.2130434811115265,0.17826086282730103,0.20434781908988953,0.27826085686683655,0.25652173161506653,0.239130437374115,0.28260868787765503,0.3304347693920135,0.40869563817977905,0.40869563817977905,0.38695651292800903,0.40434783697128296,0.4347825944423675,0.4217391312122345,0.395652174949646,0.395652174949646,0.41304346919059753,0.44347825646400446,0.439130425453186,0.439130425453186,0.46086955070495605,0.4739130437374115,0.469565212726593,0.5130434632301331,0.5478261113166809,0.5652173757553101,0.573913037776947,0.6000000238418579,0.656521737575531,0.665217399597168,0.6608695387840271,0.643478274345398,0.626086950302124,0.6086956262588501,0.560869574546814,0.5130434632301331,0.5043478012084961,0.46086955070495605,0.40869563817977905,0.3913043439388275,0.395652174949646,0.4000000059604645,0.38260868191719055,0.3695652186870575,0.37826088070869446,0.35217392444610596,0.35652172565460205,0.35652172565460205,0.37826088070869446,0.3608695566654206,0.35652172565460205,0.33478260040283203,0.37826088070869446,0.373913049697876,0.373913049697876,0.365217387676239,0.38695651292800903,0.38695651292800903,0.38260868191719055,0.3913043439388275,0.395652174949646,0.395652174949646,0.3608695566654206,0.35652172565460205,0.38695651292800903,0.38695651292800903,0.373913049697876,0.35652172565460205,0.37826088070869446,0.37826088070869446,0.365217387676239,0.373913049697876,0.38695651292800903,0.373913049697876,0.35217392444610596,0.35217392444610596,0.3695652186870575,0.3695652186870575,0.3608695566654206,0.343478262424469,0.365217387676239,0.373913049697876,0.343478262424469,0.35217392444610596,0.365217387676239,0.373913049697876,0.343478262424469,0.33478260040283203,0.3478260934352875,0.365217387676239,0.35652172565460205,0.3391304314136505,0.35652172565460205,0.3478260934352875,0.343478262424469,0.343478262424469,0.365217387676239,0.35217392444610596,0.3391304314136505,0.343478262424469,0.343478262424469,0.3608695566654206,0.35652172565460205,0.33478260040283203,0.343478262424469,0.35217392444610596,0.33478260040283203,0.3304347693920135,0.3608695566654206,0.3608695566654206,0.3391304314136505,0.3304347693920135,0.343478262424469,0.343478262424469,0.3478260934352875,0.3391304314136505,0.343478262424469,0.32608696818351746,0.313043475151062,0.32608696818351746,0.35652172565460205,0.35652172565460205,0.33478260040283203,0.3304347693920135,0.3478260934352875,0.3478260934352875,0.3391304314136505,0.3391304314136505,0.33478260040283203,0.33478260040283203,0.3304347693920135,0.3304347693920135,0.3695652186870575,0.3608695566654206,0.33478260040283203,0.313043475151062,0.33478260040283203,0.343478262424469,0.321739137172699,0.32608696818351746,0.3391304314136505,0.3478260934352875,0.313043475151062,0.33478260040283203,0.3391304314136505,0.3391304314136505,0.3173913061618805,0.313043475151062,0.3304347693920135,0.3478260934352875,0.32608696818351746,0.30434781312942505,0.343478262424469,0.3478260934352875,0.321739137172699,0.3391304314136505,0.3478260934352875,0.3478260934352875,0.321739137172699,0.321739137172699,0.3478260934352875,0.343478262424469,0.32608696818351746,0.32608696818351746,0.3391304314136505,0.3304347693920135,0.321739137172699,0.3391304314136505,0.343478262424469,0.3478260934352875,0.32608696818351746,0.33478260040283203,0.35652172565460205,0.35652172565460205,0.33478260040283203,0.32608696818351746,0.3478260934352875,0.35217392444610596,0.3391304314136505,0.3391304314136505,0.343478262424469,0.3391304314136505,1.0
1.0,0.8303303122520447,0.28378379344940186,0.0,0.12462462484836578,0.21921922266483304,0.2522522509098053,0.2957957983016968,0.30180180072784424,0.28828829526901245,0.2897897958755493,0.29879879951477045,0.30180180072784424,0.2942942976951599,0.2942942976951599,0.30180180072784424,0.3033033013343811,0.2957957983016968,0.2912912964820862,0.3003003001213074,0.30630630254745483,0.30180180072784424,0.2912912964820862,0.3078078031539917,0.3168168067932129,0.31831830739974976,0.30930930376052856,0.32582584023475647,0.33933934569358826,0.3378378450870514,0.34834834933280945,0.3633633553981781,0.379879891872406,0.38438439369201666,0.3888888955116272,0.40990990400314326,0.42042040824890137,0.4279279410839081,0.4324324429035186,0.43993994593620306,0.4354354441165924,0.4279279410839081,0.4084084033966064,0.39039039611816406,0.38288289308547974,0.3603603541851044,0.342342346906662,0.3378378450870514,0.33933934569358826,0.33183184266090393,0.3243243098258972,0.33033034205436707,0.33483484387397766,0.3213213086128235,0.3198198080062866,0.3243243098258972,0.33033034205436707,0.32582584023475647,0.32582584023475647,0.3378378450870514,0.33933934569358826,0.33933934569358826,0.3363363444805145,0.3498498499393463,0.3513513505458832,0.34834834933280945,0.34384384751319885,0.34834834933280945,0.3498498499393463,0.3453453481197357,0.33933934569358826,0.3408408463001251,0.342342346906662,0.3333333432674408,0.33033034205436707,0.33033034205436707,0.3363363444805145,0.32732734084129333,0.3213213086128235,0.3243243098258972,0.33033034205436707,0.32732734084129333,0.3243243098258972,0.32732734084129333,0.3288288414478302,0.32282280921936035,0.3213213086128235,0.32582584023475647,0.33033034205436707,0.3213213086128235,0.315315306186676,0.3168168067932129,0.3243243098258972,0.31831830739974976,0.31831830739974976,0.32282280921936035,0.32732734084129333,0.3213213086128235,0.32282280921936035,0.32732734084129333,0.3333333432674408,0.3243243098258972,0.31831830739974976,0.32282280921936035,0.3288288414478302,0.3213213086128235,0.315315306186676,0.3198198080062866,0.32582584023475647,0.315315306186676,0.3198198080062866,0.3213213086128235,0.3213213086128235,0.32582584023475647,0.32582584023475647,0.33033034205436707,0.3408408463001251,0.35435435175895685,0.3603603541851044,0.3708708584308624,0.38288289308547974,0.3768768906593322,0.3618618547916412,0.36486485600471497,0.3618618547916412,0.342342346906662,0.32582584023475647,0.31081080436706543,0.31381380558013916,0.30180180072784424,0.3003003001213074,0.30480480194091797,0.3078078031539917,0.30480480194091797,0.29729729890823364,0.3123123049736023,0.315315306186676,0.3078078031539917,0.30930930376052856,0.3213213086128235,0.33183184266090393,0.3618618547916412,0.4819819927215576,0.7282282114028931,0.9744744896888733,0.8948948979377748,0.3888888955116272,0.04954954981803895,0.18918919563293457,0.2942942976951599,0.28828829526901245,0.31381380558013916,0.32282280921936035,0.31081080436706543,0.31081080436706543,0.32582584023475647,0.3243243098258972,0.315315306186676,0.31381380558013916,0.31831830739974976,0.3243243098258972,0.31081080436706543,0.30930930376052856,0.31831830739974976,0.3198198080062866,0.3168168067932129,0.31831830739974976,0.33033034205436707,0.3363363444805145,0.3288288414478302,0.3363363444805145,0.34834834933280945,0.3603603541851044,0.3618618547916412,0.3678678572177887,0.0,0.0,0.0,0.0,0.0,0.0,0.0,0.0,0.0,0.0,0.0,0.0,0.0
1.0,0.8183183073997498,0.45945945382118225,0.15615615248680115,0.07957957684993744,0.18768769502639768,0.2012012004852295,0.171171173453331,0.16816817224025726,0.171171173453331,0.18168167769908905,0.18168167769908905,0.1756756752729416,0.19369369745254517,0.19219219684600833,0.2012012004852295,0.2207207232713699,0.24924924969673157,0.2732732594013214,0.3003003001213074,0.33033034205436707,0.3768768906593322,0.40990990400314326,0.4444444477558136,0.47897899150848383,0.5150150060653687,0.545045018196106,0.5525525808334351,0.5540540814399719,0.5675675868988037,0.5630630850791931,0.5495495200157166,0.5300300121307373,0.5120120048522949,0.5015015006065369,0.472972959280014,0.45495495200157166,0.4264264404773712,0.39339339733123774,0.36636635661125183,0.33183184266090393,0.3168168067932129,0.30480480194091797,0.2852852940559387,0.2867867946624756,0.2897897958755493,0.29729729890823364,0.31831830739974976,0.3288288414478302,0.3603603541851044,0.38438439369201666,0.3708708584308624,0.3453453481197357,0.29879879951477045,0.2687687575817108,0.2597597539424896,0.24174174666404724,0.25375375151634216,0.2612612545490265,0.24624624848365784,0.24924924969673157,0.25525525212287903,0.22822822630405423,0.24474474787712097,0.402402400970459,0.7162162065505981,0.9714714884757997,0.782282292842865,0.379879891872406,0.06906907260417938,0.0,0.1111111119389534,0.16066065430641174,0.14714714884757996,0.13963964581489563,0.12312312424182892,0.12162162363529204,0.12612612545490265,0.12462462484836578,0.1321321278810501,0.0,0.0,0.0,0.0,0.0,0.0,0.0,0.0,0.0,0.0,0.0,0.0,0.0,0.0,0.0,0.0,0.0,0.0,0.0,0.0,0.0,0.0,0.0,0.0,0.0,0.0,0.0,0.0,0.0,0.0,0.0,0.0,0.0,0.0,0.0,0.0,0.0,0.0,0.0,0.0,0.0,0.0,0.0,0.0,0.0,0.0,0.0,0.0,0.0,0.0,0.0,0.0,0.0,0.0,0.0,0.0,0.0,0.0,0.0,0.0,0.0,0.0,0.0,0.0,0.0,0.0,0.0,0.0,0.0,0.0,0.0,0.0,0.0,0.0,0.0,0.0,0.0,0.0,0.0,0.0,0.0,0.0,0.0,0.0,0.0,0.0,0.0,0.0,0.0,0.0,0.0,0.0,0.0,0.0,0.0,0.0,0.0,0.0,0.0,0.0,0.0,0.0,0.0,0.0,0.0,0.0,0.0,0.0
0.16279070079326627,0.5406976938247681,0.7558139562606812,0.1860465109348297,0.16860465705394745,0.5465116500854492,0.6162790656089783,0.6976743936538696,0.6511628031730652,0.7034883499145508,0.680232584476471,0.7325581312179564,0.7209302186965942,0.7558139562606812,0.75,0.7790697813034058,0.7616279125213622,0.8139534592628478,0.7616279125213622,0.790697693824768,0.7790697813034058,0.8139534592628478,0.8023256063461304,0.8488371968269349,0.8081395626068115,0.8430232405662536,0.8372092843055725,0.854651153087616,0.8430232405662536,0.9127907156944275,0.9244186282157898,0.9651162624359131,0.9418604373931885,1.0,0.959302306175232,0.9476743936538696,0.8837209343910217,0.8895348906517029,0.8372092843055725,0.8255813717842102,0.7558139562606812,0.7616279125213622,0.7034883499145508,0.7034883499145508,0.680232584476471,0.7151162624359131,0.680232584476471,0.7209302186965942,0.7093023061752319,0.7267441749572754,0.6918604373931885,0.7034883499145508,0.680232584476471,0.6976743936538696,0.680232584476471,0.7093023061752319,0.680232584476471,0.7151162624359131,0.6686046719551086,0.6918604373931885,0.6511628031730652,0.6744186282157898,0.6279069781303406,0.680232584476471,0.645348846912384,0.6686046719551086,0.6337209343910217,0.6395348906517029,0.604651153087616,0.6337209343910217,0.5988371968269348,0.6279069781303406,0.604651153087616,0.6279069781303406,0.604651153087616,0.6395348906517029,0.604651153087616,0.6162790656089783,0.569767415523529,0.6104651093482971,0.5813953280448914,0.6220930218696594,0.569767415523529,0.6162790656089783,0.6279069781303406,0.6569767594337463,0.645348846912384,0.6686046719551086,0.6860465407371521,0.645348846912384,0.5813953280448914,0.6279069781303406,0.5872092843055725,0.6279069781303406,0.5988371968269348,0.5639534592628479,0.5290697813034058,0.5465116500854492,0.5174418687820435,0.5406976938247681,0.5116279125213623,0.5523256063461304,0.5116279125213623,0.5406976938247681,0.5232558250427246,0.5755813717842102,0.5930232405662537,0.7034883499145508,0.47674417495727534,0.25,0.0,0.4011628031730652,0.6744186282157898,0.13953489065170288,0.13953489065170288,0.5058139562606812,0.5232558250427246,0.5465116500854492,0.5465116500854492,0.5581395626068115,0.5755813717842102,0.6162790656089783,0.5930232405662537,0.6337209343910217,0.5872092843055725,0.6511628031730652,0.6220930218696594,0.6395348906517029,0.6279069781303406,0.6918604373931885,0.6744186282157898,0.0,0.0,0.0,0.0,0.0,0.0,0.0,0.0,0.0,0.0,0.0,0.0,0.0,0.0,0.0,0.0,0.0,0.0,0.0,0.0,0.0,0.0,0.0,0.0,0.0,0.0,0.0,0.0,0.0,0.0,0.0,0.0,0.0,0.0,0.0,0.0,0.0,0.0,0.0,0.0,0.0,0.0,0.0,0.0,0.0,0.0,0.0,0.0,0.0,0.0,0.0,0.0,0.0,0.0,0.0,0.0,0.0
0.9502074718475341,0.9668049812316895,0.6846473217010498,0.2572614252567291,0.016597511246800423,0.0,0.10373444110155104,0.15352697670459747,0.23651452362537384,0.23651452362537384,0.2531120479106903,0.23651452362537384,0.24481327831745148,0.23651452362537384,0.23236514627933505,0.22406639158725736,0.23651452362537384,0.22406639158725736,0.24896265566349027,0.22406639158725736,0.24481327831745148,0.21576763689517975,0.24066390097141263,0.23236514627933505,0.2572614252567291,0.24066390097141263,0.2531120479106903,0.24896265566349027,0.2697095572948456,0.2572614252567291,0.30290457606315613,0.2904564440250397,0.3360995948314667,0.3153527081012726,0.3443983495235443,0.34854772686958313,0.3817427456378937,0.39004150032997126,0.40248963236808777,0.41078838706016546,0.4356846511363983,0.41908714175224304,0.4522821605205536,0.4273858964443206,0.43983402848243713,0.4149377644062042,0.4356846511363983,0.41078838706016546,0.4315352737903595,0.4066390097141266,0.41078838706016546,0.40248963236808777,0.4066390097141266,0.373443990945816,0.3858921229839325,0.3651452362537384,0.373443990945816,0.3526971042156219,0.3651452362537384,0.3402489721775055,0.35684648156166077,0.3402489721775055,0.35684648156166077,0.33195021748542786,0.35684648156166077,0.35684648156166077,0.39004150032997126,0.3692946135997772,0.3817427456378937,0.373443990945816,0.40248963236808777,0.3858921229839325,0.4066390097141266,0.3941908776760102,0.4066390097141266,0.40248963236808777,0.41908714175224304,0.3941908776760102,0.41908714175224304,0.41908714175224304,0.4273858964443206,0.41078838706016546,0.4273858964443206,0.4149377644062042,0.4315352737903595,0.4315352737903595,0.5020747184753418,0.48132780194282526,0.5186722278594971,0.5352697372436523,0.5933610200881958,0.5850622653961182,0.6265560388565063,0.6016597747802734,0.5477178692817688,0.4315352737903595,0.39834025502204895,0.41078838706016546,0.40248963236808777,0.39834025502204895,0.4066390097141266,0.3817427456378937,0.4149377644062042,0.39834025502204895,0.4149377644062042,0.3858921229839325,0.42323651909828186,0.4149377644062042,0.4149377644062042,0.40248963236808777,0.5518672466278076,0.8091286420822144,0.8672199249267578,0.9170124530792236,0.9834024906158448,1.0,0.9917012453079224,0.6058091521263123,0.31120333075523376,0.04979253187775612,0.09128630906343459,0.17842324078083038,0.28630706667900085,0.31120333075523376,0.3236514627933502,0.3195020854473114,0.32780084013938904,0.3153527081012726,0.33195021748542786,0.30705395340919495,0.30705395340919495,0.2904564440250397,0.30290457606315613,0.28215768933296204,0.29875519871711725,0.2904564440250397,0.30705395340919495,0.2904564440250397,0.30705395340919495,0.30705395340919495,0.0,0.0,0.0,0.0,0.0,0.0,0.0,0.0,0.0,0.0,0.0,0.0,0.0,0.0,0.0,0.0,0.0,0.0,0.0,0.0,0.0,0.0,0.0,0.0,0.0,0.0,0.0,0.0,0.0,0.0,0.0,0.0,0.0,0.0,0.0,0.0,0.0,0.0,0.0,0.0,0.0,0.0,0.0,0.0,0.0,0.0,0.0,0.0
